0.00000000000 0.45213505626 0.54786497355
0.00000000000 0.45107153058 0.54892849922
0.00000000000 0.44973990321 0.55026006699
1.00000000000 0.45152288675 0.54847705364
1.00000000000 0.45200744271 0.54799258709
0.00000000000 0.45157229900 0.54842764139
0.00000000000 0.45141807199 0.54858195782
1.00000000000 0.45111304522 0.54888689518
0.00000000000 0.45140689611 0.54859316349
0.00000000000 0.44984909892 0.55015087128
0.00000000000 0.45173108578 0.54826885462
0.00000000000 0.45078301430 0.54921704531
1.00000000000 0.44969016314 0.55030989647
0.00000000000 0.45243138075 0.54756861925
0.00000000000 0.45056170225 0.54943829775
0.00000000000 0.45173025131 0.54826974869
0.00000000000 0.45149591565 0.54850411415
0.00000000000 0.44999122620 0.55000883341
0.00000000000 0.45134553313 0.54865443707
1.00000000000 0.45223271847 0.54776728153
0.00000000000 0.45095750690 0.54904252291
0.00000000000 0.44991606474 0.55008399487
0.00000000000 0.45127195120 0.54872798920
0.00000000000 0.45049721003 0.54950273037
0.00000000000 0.45087325573 0.54912674427
0.00000000000 0.45008119941 0.54991877079
0.00000000000 0.45222681761 0.54777318239
0.00000000000 0.45000833273 0.54999166727
0.00000000000 0.45017349720 0.54982656240
0.00000000000 0.45272734761 0.54727268219
0.00000000000 0.45160901546 0.54839104414
0.00000000000 0.44968751073 0.55031245947
0.00000000000 0.45034903288 0.54965096712
0.00000000000 0.45093768835 0.54906231165
0.00000000000 0.45130175352 0.54869818687
0.00000000000 0.45177531242 0.54822474718
0.00000000000 0.45109444857 0.54890555143
0.00000000000 0.45097079873 0.54902917147
0.00000000000 0.45045015216 0.54954981804
1.00000000000 0.45078963041 0.54921042919
0.00000000000 0.45121121407 0.54878878593
0.00000000000 0.45065459609 0.54934543371
0.00000000000 0.45001539588 0.54998457432
0.00000000000 0.45062172413 0.54937833548
0.00000000000 0.45217472315 0.54782521725
0.00000000000 0.45170128345 0.54829877615
0.00000000000 0.45252525806 0.54747474194
1.00000000000 0.45159485936 0.54840517044
0.00000000000 0.44984275103 0.55015730858
1.00000000000 0.45161283016 0.54838716984
0.00000000000 0.44958272576 0.55041724443
0.00000000000 0.45060518384 0.54939478636
0.00000000000 0.45001712441 0.54998284578
0.00000000000 0.45130366087 0.54869633913
0.00000000000 0.45096611977 0.54903393984
0.00000000000 0.45153489709 0.54846507311
0.00000000000 0.45174148679 0.54825854301
0.00000000000 0.45085915923 0.54914087057
0.00000000000 0.45185589790 0.54814410210
1.00000000000 0.45236194134 0.54763805866
0.00000000000 0.45097351074 0.54902648926
1.00000000000 0.45204755664 0.54795247316
0.00000000000 0.45253267884 0.54746729136
0.00000000000 0.45071107149 0.54928886890
0.00000000000 0.45060163736 0.54939836264
0.00000000000 0.45103955269 0.54896050692
0.00000000000 0.45103567839 0.54896438122
0.00000000000 0.45155730844 0.54844266176
0.00000000000 0.45104745030 0.54895251989
1.00000000000 0.45129105449 0.54870897532
1.00000000000 0.45084518194 0.54915481806
0.00000000000 0.45014250278 0.54985755682
0.00000000000 0.45169961452 0.54830038548
1.00000000000 0.45205727220 0.54794269800
0.00000000000 0.45159921050 0.54840075970
0.00000000000 0.44984570146 0.55015426874
0.00000000000 0.45194092393 0.54805904627
0.00000000000 0.45133334398 0.54866665602
0.00000000000 0.45125925541 0.54874080420
0.00000000000 0.45081740618 0.54918259382
0.00000000000 0.45194035769 0.54805970192
0.00000000000 0.45162495971 0.54837501049
0.00000000000 0.45130980015 0.54869019985
0.00000000000 0.45166835189 0.54833167791
1.00000000000 0.45116534829 0.54883462191
0.00000000000 0.44992759824 0.55007243156
0.00000000000 0.45102998614 0.54897004366
1.00000000000 0.45127969980 0.54872030020
0.00000000000 0.45133835077 0.54866158962
0.00000000000 0.45139920712 0.54860079288
1.00000000000 0.45179000497 0.54821002483
0.00000000000 0.45141062140 0.54858934879
1.00000000000 0.45238056779 0.54761946201
0.00000000000 0.45068162680 0.54931837320
0.00000000000 0.45035490394 0.54964506626
0.00000000000 0.45073226094 0.54926770926
0.00000000000 0.45161497593 0.54838508368
0.00000000000 0.45110529661 0.54889470339
0.00000000000 0.45126470923 0.54873526096
0.00000000000 0.45056003332 0.54943996668
0.00000000000 0.45190584660 0.54809421301
0.00000000000 0.45140564442 0.54859435558
0.00000000000 0.45229288936 0.54770708084
0.00000000000 0.45094123483 0.54905873537
0.00000000000 0.45193269849 0.54806733131
1.00000000000 0.45186039805 0.54813963175
0.00000000000 0.45009920001 0.54990077019
0.00000000000 0.45109108090 0.54890894890
0.00000000000 0.45117035508 0.54882961512
0.00000000000 0.45147672296 0.54852324724
0.00000000000 0.45146924257 0.54853069782
0.00000000000 0.45196500421 0.54803496599
0.00000000000 0.45137029886 0.54862970114
0.00000000000 0.45059478283 0.54940521717
0.00000000000 0.45091602206 0.54908400774
0.00000000000 0.45084002614 0.54915994406
0.00000000000 0.45074769855 0.54925227165
0.00000000000 0.45142182708 0.54857814312
0.00000000000 0.44982323050 0.55017679930
0.00000000000 0.45108947158 0.54891055822
0.00000000000 0.44987893105 0.55012106895
0.00000000000 0.45106828213 0.54893171787
0.00000000000 0.45052671432 0.54947322607
0.00000000000 0.45183020830 0.54816979170
0.00000000000 0.45083844662 0.54916149378
0.00000000000 0.45238804817 0.54761195183
0.00000000000 0.45047798753 0.54952198267
0.00000000000 0.45210731030 0.54789274931
0.00000000000 0.45004731417 0.54995262623
0.00000000000 0.45009440184 0.54990565777
0.00000000000 0.45298972726 0.54701024294
0.00000000000 0.45160034299 0.54839962721
0.00000000000 0.45198303461 0.54801702499
0.00000000000 0.45156949759 0.54843050241
0.00000000000 0.45258978009 0.54741019011
0.00000000000 0.45021665096 0.54978334904
0.00000000000 0.45176491141 0.54823511839
0.00000000000 0.45207232237 0.54792767763
0.00000000000 0.45156067610 0.54843926430
1.00000000000 0.45160719752 0.54839283228
0.00000000000 0.45129156113 0.54870843887
0.00000000000 0.45007818937 0.54992181063
1.00000000000 0.45166349411 0.54833644629
1.00000000000 0.44988265634 0.55011731386
0.00000000000 0.45032438636 0.54967558384
0.00000000000 0.45055389404 0.54944610596
0.00000000000 0.45081982017 0.54918015003
0.00000000000 0.44997137785 0.55002868176
0.00000000000 0.45030573010 0.54969424009
1.00000000000 0.45227658749 0.54772335291
0.00000000000 0.45178842545 0.54821151495
0.00000000000 0.45202142000 0.54797858000
0.00000000000 0.45135083795 0.54864919186
0.00000000000 0.45237571001 0.54762428999
0.00000000000 0.45115730166 0.54884272814
1.00000000000 0.45169863105 0.54830139875
0.00000000000 0.45213234425 0.54786765575
0.00000000000 0.45223397017 0.54776602983
0.00000000000 0.45156216621 0.54843783379
0.00000000000 0.44989836216 0.55010163784
0.00000000000 0.45096459985 0.54903537035
0.00000000000 0.45000419021 0.54999583960
0.00000000000 0.45025441051 0.54974561930
0.00000000000 0.45127090812 0.54872906208
0.00000000000 0.45033711195 0.54966288805
0.00000000000 0.45204633474 0.54795366526
0.00000000000 0.45117092133 0.54882907867
0.00000000000 0.44991168380 0.55008828640
0.00000000000 0.44992282987 0.55007714033
1.00000000000 0.45159754157 0.54840248823
0.00000000000 0.45068213344 0.54931789637
0.00000000000 0.44981035590 0.55018961430
0.00000000000 0.45167690516 0.54832309484
1.00000000000 0.45219203830 0.54780793190
0.00000000000 0.45082211494 0.54917788506
0.00000000000 0.44996222854 0.55003780127
0.00000000000 0.44959902763 0.55040097237
0.00000000000 0.45127943158 0.54872059822
0.00000000000 0.45099326968 0.54900670052
0.00000000000 0.45061090589 0.54938912392
0.00000000000 0.45136907697 0.54863095284
1.00000000000 0.45211425424 0.54788571596
0.00000000000 0.45132559538 0.54867440462
0.00000000000 0.45230519772 0.54769486189
1.00000000000 0.45229309797 0.54770690203
0.00000000000 0.45178759098 0.54821240902
1.00000000000 0.45213884115 0.54786115885
0.00000000000 0.45126295090 0.54873704910
0.00000000000 0.45188823342 0.54811173677
0.00000000000 0.45168501139 0.54831498861
0.00000000000 0.45155271888 0.54844731092
0.00000000000 0.45039787889 0.54960215092
0.00000000000 0.45056825876 0.54943174124
0.00000000000 0.45076891780 0.54923111200
0.00000000000 0.45049354434 0.54950648546
0.00000000000 0.45072135329 0.54927861691
1.00000000000 0.45195266604 0.54804730415
0.00000000000 0.45176541805 0.54823452234
0.00000000000 0.45153579116 0.54846417904
0.00000000000 0.45134013891 0.54865986109
0.00000000000 0.45162335038 0.54837667942
0.00000000000 0.45106700063 0.54893296957
0.00000000000 0.45137524605 0.54862475395
0.00000000000 0.45171663165 0.54828333855
0.00000000000 0.45036867261 0.54963135719
0.00000000000 0.45220133662 0.54779863358
0.00000000000 0.45202636719 0.54797363281
1.00000000000 0.45191487670 0.54808515310
0.00000000000 0.45120894909 0.54879105091
0.00000000000 0.45056989789 0.54943013191
0.00000000000 0.45231950283 0.54768043756
0.00000000000 0.45209264755 0.54790735245
0.00000000000 0.45059248805 0.54940754175
0.00000000000 0.45192596316 0.54807400703
0.00000000000 0.45152223110 0.54847776890
0.00000000000 0.45016005635 0.54983997345
0.00000000000 0.45299592614 0.54700410366
0.00000000000 0.45003813505 0.54996186495
0.00000000000 0.45178020000 0.54821980000
0.00000000000 0.45006838441 0.54993158579
0.00000000000 0.45173317194 0.54826676846
0.00000000000 0.44992226362 0.55007773638
0.00000000000 0.45063221455 0.54936778545
1.00000000000 0.44998615980 0.55001378059
0.00000000000 0.45130392909 0.54869604111
0.00000000000 0.45244687796 0.54755312204
0.00000000000 0.45112743974 0.54887253046
0.00000000000 0.45104488730 0.54895514250
0.00000000000 0.45034605265 0.54965394735
0.00000000000 0.45111051202 0.54888951778
0.00000000000 0.45165413618 0.54834586382
0.00000000000 0.45172500610 0.54827505350
0.00000000000 0.44993126392 0.55006873608
0.00000000000 0.45153903961 0.54846096039
0.00000000000 0.45198065042 0.54801934958
0.00000000000 0.45166027546 0.54833966494
0.00000000000 0.45172905922 0.54827094078
0.00000000000 0.45138898492 0.54861098528
0.00000000000 0.45080006123 0.54919993877
0.00000000000 0.45193791389 0.54806208611
0.00000000000 0.45024108887 0.54975897074
0.00000000000 0.45145848393 0.54854148626
0.00000000000 0.44988664985 0.55011332035
0.00000000000 0.45085075498 0.54914921522
0.00000000000 0.45144581795 0.54855418205
0.00000000000 0.44978538156 0.55021464825
0.00000000000 0.45190396905 0.54809600115
0.00000000000 0.45153287053 0.54846715927
0.00000000000 0.44968366623 0.55031633377
0.00000000000 0.45050764084 0.54949229956
0.00000000000 0.45219948888 0.54780054092
0.00000000000 0.45187681913 0.54812312126
0.00000000000 0.45151442289 0.54848557711
0.00000000000 0.45184123516 0.54815876484
0.00000000000 0.45113086700 0.54886907339
0.00000000000 0.45001387596 0.54998612404
0.00000000000 0.44999399781 0.55000603199
0.00000000000 0.45136126876 0.54863870144
0.00000000000 0.44987499714 0.55012500286
0.00000000000 0.45018652081 0.54981344938
1.00000000000 0.45096629858 0.54903370142
0.00000000000 0.45050784945 0.54949212074
0.00000000000 0.45112726092 0.54887270927
0.00000000000 0.44998702407 0.55001294613
0.00000000000 0.45024979115 0.54975020885
0.00000000000 0.45258998871 0.54741001129
0.00000000000 0.45028296113 0.54971706867
0.00000000000 0.45174235106 0.54825758934
0.00000000000 0.45048850775 0.54951149225
0.00000000000 0.45113480091 0.54886519909
0.00000000000 0.44979688525 0.55020314455
0.00000000000 0.45000001788 0.54999995232
0.00000000000 0.45127186179 0.54872816801
0.00000000000 0.45037028193 0.54962968826
0.00000000000 0.45145693421 0.54854309559
1.00000000000 0.45020091534 0.54979908466
1.00000000000 0.45239001513 0.54760992527
0.00000000000 0.45128086209 0.54871910810
0.00000000000 0.45020446181 0.54979556799
0.00000000000 0.45148652792 0.54851347208
1.00000000000 0.45068445802 0.54931551218
1.00000000000 0.45150682330 0.54849314690
0.00000000000 0.44993788004 0.55006211996
0.00000000000 0.45123437047 0.54876559973
0.00000000000 0.45129269361 0.54870730639
0.00000000000 0.45108911395 0.54891085625
0.00000000000 0.45045536757 0.54954463243
0.00000000000 0.45005375147 0.54994624853
0.00000000000 0.45053970814 0.54946029186
0.00000000000 0.45113021135 0.54886972904
0.00000000000 0.45002713799 0.54997283220
0.00000000000 0.45125976205 0.54874026775
0.00000000000 0.45091265440 0.54908734560
0.00000000000 0.45063561201 0.54936438799
0.00000000000 0.45050784945 0.54949212074
1.00000000000 0.45226070285 0.54773926735
0.00000000000 0.45017492771 0.54982513189
0.00000000000 0.44972169399 0.55027830601
0.00000000000 0.44967636466 0.55032360554
0.00000000000 0.45039784908 0.54960215092
0.00000000000 0.45055142045 0.54944854975
1.00000000000 0.45315170288 0.54684829712
0.00000000000 0.45066231489 0.54933768511
0.00000000000 0.45149040222 0.54850959778
0.00000000000 0.45128443837 0.54871559143
0.00000000000 0.45043370128 0.54956626892
1.00000000000 0.45313227177 0.54686766863
1.00000000000 0.45142903924 0.54857099056
0.00000000000 0.45182192326 0.54817807674
1.00000000000 0.45068511367 0.54931491613
0.00000000000 0.44976031780 0.55023962259
0.00000000000 0.45061162114 0.54938840866
0.00000000000 0.45128467679 0.54871529341
0.00000000000 0.45106872916 0.54893124104
0.00000000000 0.45155537128 0.54844462872
0.00000000000 0.45177689195 0.54822313786
0.00000000000 0.45078632236 0.54921370745
0.00000000000 0.45153203607 0.54846799374
0.00000000000 0.45057609677 0.54942387342
1.00000000000 0.45066395402 0.54933607578
0.00000000000 0.45200401545 0.54799598455
0.00000000000 0.45046618581 0.54953384399
0.00000000000 0.45216900110 0.54783093929
0.00000000000 0.44998544455 0.55001461506
0.00000000000 0.45199793577 0.54800206423
0.00000000000 0.45098024607 0.54901975393
0.00000000000 0.45215326548 0.54784673452
1.00000000000 0.45306646824 0.54693353176
0.00000000000 0.45126521587 0.54873484373
0.00000000000 0.45161411166 0.54838591814
0.00000000000 0.45115873218 0.54884129763
0.00000000000 0.45195975900 0.54804021120
1.00000000000 0.45226275921 0.54773724079
0.00000000000 0.45119681954 0.54880315065
0.00000000000 0.45083916187 0.54916089773
0.00000000000 0.45059630275 0.54940372705
0.00000000000 0.45082643628 0.54917359352
0.00000000000 0.45128157735 0.54871839285
0.00000000000 0.45211350918 0.54788649082
0.00000000000 0.45168462396 0.54831540585
1.00000000000 0.45142096281 0.54857903719
0.00000000000 0.45025670528 0.54974329472
0.00000000000 0.45172157884 0.54827839136
0.00000000000 0.45106944442 0.54893058538
0.00000000000 0.45174241066 0.54825758934
0.00000000000 0.45057263970 0.54942733049
0.00000000000 0.45062473416 0.54937523603
1.00000000000 0.45090955496 0.54909044504
0.00000000000 0.44996574521 0.55003428459
0.00000000000 0.45142576098 0.54857420921
0.00000000000 0.45199292898 0.54800707102
0.00000000000 0.45099040866 0.54900962114
0.00000000000 0.45046487451 0.54953515530
0.00000000000 0.45125302672 0.54874694347
0.00000000000 0.44955104589 0.55044895411
0.00000000000 0.45242461562 0.54757541418
0.00000000000 0.45122119784 0.54877883196
0.00000000000 0.44999560714 0.55000436306
0.00000000000 0.45037460327 0.54962539673
1.00000000000 0.45226320624 0.54773676395
0.00000000000 0.44989606738 0.55010396242
0.00000000000 0.45096123219 0.54903870821
0.00000000000 0.45081090927 0.54918903112
0.00000000000 0.45000693202 0.54999303818
0.00000000000 0.45199319720 0.54800677299
0.00000000000 0.45186206698 0.54813790321
0.00000000000 0.45154908299 0.54845088720
0.00000000000 0.45136189461 0.54863816500
1.00000000000 0.45116311312 0.54883694649
1.00000000000 0.45214974880 0.54785031080
0.00000000000 0.44994786382 0.55005210638
0.00000000000 0.45161741972 0.54838258028
0.00000000000 0.45224317908 0.54775685072
0.00000000000 0.45084843040 0.54915159941
0.00000000000 0.45076864958 0.54923135042
0.00000000000 0.45174556971 0.54825437069
0.00000000000 0.45143049955 0.54856956005
0.00000000000 0.45148712397 0.54851287603
0.00000000000 0.45218423009 0.54781574011
0.00000000000 0.45238670707 0.54761326313
1.00000000000 0.45210194588 0.54789811373
0.00000000000 0.45195296407 0.54804706573
0.00000000000 0.45066598058 0.54933398962
0.00000000000 0.45039930940 0.54960066080
0.00000000000 0.45011085272 0.54988914728
0.00000000000 0.45077970624 0.54922032356
1.00000000000 0.45183542371 0.54816454649
0.00000000000 0.45190885663 0.54809117317
0.00000000000 0.45162987709 0.54837012291
0.00000000000 0.45037600398 0.54962402582
0.00000000000 0.45089265704 0.54910731316
0.00000000000 0.45149427652 0.54850572348
0.00000000000 0.45012873411 0.54987126589
0.00000000000 0.45039084554 0.54960912466
0.00000000000 0.45134660602 0.54865336418
1.00000000000 0.45152059197 0.54847937822
0.00000000000 0.44986706972 0.55013293028
0.00000000000 0.45243111253 0.54756885767
0.00000000000 0.45186170936 0.54813832045
0.00000000000 0.45006889105 0.54993110895
0.00000000000 0.45122843981 0.54877156019
0.00000000000 0.45170000196 0.54829996824
0.00000000000 0.45151221752 0.54848778248
0.00000000000 0.45158872008 0.54841130972
0.00000000000 0.45219799876 0.54780197144
0.00000000000 0.45176503062 0.54823499918
0.00000000000 0.45272675157 0.54727327824
0.00000000000 0.45185038447 0.54814958572
0.00000000000 0.45092442632 0.54907554388
0.00000000000 0.45086821914 0.54913181067
1.00000000000 0.45190036297 0.54809963703
0.00000000000 0.45099565387 0.54900431633
1.00000000000 0.44983392954 0.55016607046
0.00000000000 0.45167919993 0.54832077026
1.00000000000 0.45242404938 0.54757595062
0.00000000000 0.45229244232 0.54770755768
0.00000000000 0.45196235180 0.54803764820
0.00000000000 0.44973856211 0.55026143789
0.00000000000 0.45128473639 0.54871523380
0.00000000000 0.44991868734 0.55008131266
0.00000000000 0.45173591375 0.54826408625
0.00000000000 0.45062100887 0.54937899113
0.00000000000 0.44963231683 0.55036765337
0.00000000000 0.45031931996 0.54968065023
0.00000000000 0.45078900456 0.54921096563
0.00000000000 0.45112529397 0.54887467623
0.00000000000 0.45188835263 0.54811161757
0.00000000000 0.45203515887 0.54796487093
0.00000000000 0.45086714625 0.54913288355
1.00000000000 0.45067417622 0.54932582378
1.00000000000 0.45182394981 0.54817605019
1.00000000000 0.45164307952 0.54835689068
0.00000000000 0.45175755024 0.54824250937
0.00000000000 0.45122030377 0.54877966642
0.00000000000 0.45191055536 0.54808944464
0.00000000000 0.45155161619 0.54844838381
0.00000000000 0.45048677921 0.54951322079
1.00000000000 0.45145899057 0.54854100943
0.00000000000 0.45028936863 0.54971063137
1.00000000000 0.45188277960 0.54811722040
1.00000000000 0.45186749101 0.54813253880
0.00000000000 0.45158040524 0.54841965437
0.00000000000 0.45205590129 0.54794412851
0.00000000000 0.45118176937 0.54881817102
0.00000000000 0.44968131185 0.55031871796
0.00000000000 0.45201984048 0.54798012972
0.00000000000 0.45150357485 0.54849642515
0.00000000000 0.45294633508 0.54705369473
0.00000000000 0.45073935390 0.54926061630
0.00000000000 0.45081910491 0.54918086529
0.00000000000 0.45175737143 0.54824262857
0.00000000000 0.45215675235 0.54784321785
0.00000000000 0.45194059610 0.54805940390
1.00000000000 0.45232465863 0.54767537117
0.00000000000 0.45079135895 0.54920864105
0.00000000000 0.45013311505 0.54986685514
0.00000000000 0.45127353072 0.54872643948
1.00000000000 0.44951027632 0.55048972368
0.00000000000 0.45095211267 0.54904788733
0.00000000000 0.44976049662 0.55023950338
0.00000000000 0.45115122199 0.54884874821
0.00000000000 0.45053327084 0.54946678877
0.00000000000 0.45064795017 0.54935204983
0.00000000000 0.44983458519 0.55016541481
1.00000000000 0.45036166906 0.54963833094
0.00000000000 0.45066839457 0.54933160543
0.00000000000 0.45026254654 0.54973745346
1.00000000000 0.45210090280 0.54789906740
0.00000000000 0.45014882088 0.54985117912
0.00000000000 0.45052692294 0.54947304726
0.00000000000 0.45015668869 0.54984331131
1.00000000000 0.45101928711 0.54898065329
0.00000000000 0.45067718625 0.54932284355
0.00000000000 0.45022687316 0.54977315664
0.00000000000 0.44991484284 0.55008512735
0.00000000000 0.45276769996 0.54723227024
0.00000000000 0.45024713874 0.54975289106
0.00000000000 0.45204320550 0.54795676470
1.00000000000 0.45242625475 0.54757374525
0.00000000000 0.45164135098 0.54835861921
0.00000000000 0.45078754425 0.54921251535
0.00000000000 0.45195403695 0.54804599285
0.00000000000 0.45197218657 0.54802781343
0.00000000000 0.45073196292 0.54926800728
0.00000000000 0.45142528415 0.54857468605
1.00000000000 0.45012292266 0.54987710714
0.00000000000 0.45199820399 0.54800182581
0.00000000000 0.45190557837 0.54809439182
0.00000000000 0.45048907399 0.54951089621
1.00000000000 0.45210424066 0.54789572954
0.00000000000 0.45293590426 0.54706412554
1.00000000000 0.45084086061 0.54915916920
1.00000000000 0.45150873065 0.54849129915
1.00000000000 0.45180326700 0.54819679260
0.00000000000 0.45107102394 0.54892891645
0.00000000000 0.45164787769 0.54835212231
0.00000000000 0.45143467188 0.54856532812
0.00000000000 0.45151960850 0.54848039150
0.00000000000 0.45073717833 0.54926282167
0.00000000000 0.45096957684 0.54903042316
0.00000000000 0.44993689656 0.55006313324
0.00000000000 0.45130664110 0.54869335890
0.00000000000 0.45153754950 0.54846245050
1.00000000000 0.45156499743 0.54843497276
1.00000000000 0.45269942284 0.54730063677
0.00000000000 0.45094621181 0.54905384779
0.00000000000 0.45200341940 0.54799658060
0.00000000000 0.45050913095 0.54949086905
0.00000000000 0.45090386271 0.54909610748
0.00000000000 0.45028418303 0.54971581697
0.00000000000 0.45048582554 0.54951411486
1.00000000000 0.45193260908 0.54806739092
0.00000000000 0.45136874914 0.54863125086
0.00000000000 0.45197159052 0.54802840948
0.00000000000 0.45142453909 0.54857552052
1.00000000000 0.45143488050 0.54856514931
0.00000000000 0.45077815652 0.54922187328
0.00000000000 0.45054319501 0.54945677519
0.00000000000 0.45142745972 0.54857254028
0.00000000000 0.45025664568 0.54974329472
0.00000000000 0.44976949692 0.55023044348
0.00000000000 0.45088496804 0.54911500216
0.00000000000 0.45100593567 0.54899406433
0.00000000000 0.45142397285 0.54857605696
0.00000000000 0.45095542073 0.54904454947
0.00000000000 0.45200219750 0.54799783230
0.00000000000 0.45031237602 0.54968762398
0.00000000000 0.45175018907 0.54824978113
0.00000000000 0.45151662827 0.54848337173
0.00000000000 0.45273298025 0.54726701975
0.00000000000 0.44999012351 0.55000984669
0.00000000000 0.45082443953 0.54917556047
0.00000000000 0.45214360952 0.54785639048
0.00000000000 0.45160186291 0.54839813709
1.00000000000 0.45227989554 0.54772007465
0.00000000000 0.45050007105 0.54949992895
1.00000000000 0.45281028748 0.54718965292
0.00000000000 0.45208141208 0.54791861773
0.00000000000 0.45257943869 0.54742056131
0.00000000000 0.45241144300 0.54758858681
0.00000000000 0.45143261552 0.54856741428
1.00000000000 0.44990119338 0.55009883642
0.00000000000 0.45216283202 0.54783719778
0.00000000000 0.45028784871 0.54971212149
0.00000000000 0.45090445876 0.54909551144
0.00000000000 0.45082443953 0.54917556047
0.00000000000 0.45107641816 0.54892361164
0.00000000000 0.45133975148 0.54866021872
1.00000000000 0.45075538754 0.54924458265
0.00000000000 0.45156258345 0.54843741655
0.00000000000 0.45072460175 0.54927533865
1.00000000000 0.45184689760 0.54815310240
0.00000000000 0.45155844092 0.54844158888
0.00000000000 0.45032906532 0.54967093468
0.00000000000 0.45134416223 0.54865580797
0.00000000000 0.45040619373 0.54959386587
0.00000000000 0.45176598430 0.54823398590
0.00000000000 0.45018178225 0.54981827736
0.00000000000 0.45281499624 0.54718500376
0.00000000000 0.45155552030 0.54844444990
0.00000000000 0.45031473041 0.54968529940
0.00000000000 0.45196133852 0.54803872108
0.00000000000 0.45009267330 0.54990732670
0.00000000000 0.45049446821 0.54950553179
0.00000000000 0.45226156712 0.54773837328
0.00000000000 0.45164251328 0.54835748672
0.00000000000 0.45249807835 0.54750192165
0.00000000000 0.45038184524 0.54961812496
0.00000000000 0.45204481483 0.54795515537
0.00000000000 0.45139023662 0.54860979319
0.00000000000 0.45106443763 0.54893553257
0.00000000000 0.44986519217 0.55013483763
0.00000000000 0.45195353031 0.54804641008
0.00000000000 0.45053210855 0.54946786165
0.00000000000 0.45241126418 0.54758870602
0.00000000000 0.45302501321 0.54697495699
0.00000000000 0.45209214091 0.54790782928
0.00000000000 0.45171704888 0.54828298092
0.00000000000 0.45114859939 0.54885137081
0.00000000000 0.45080992579 0.54919004440
0.00000000000 0.45015731454 0.54984271526
0.00000000000 0.45121130347 0.54878872633
1.00000000000 0.45077854395 0.54922139645
0.00000000000 0.45202219486 0.54797774553
0.00000000000 0.45045173168 0.54954826832
0.00000000000 0.44990396500 0.55009603500
0.00000000000 0.45047459006 0.54952543974
0.00000000000 0.45141270757 0.54858732224
0.00000000000 0.45072022080 0.54927974939
0.00000000000 0.45196351409 0.54803645611
0.00000000000 0.45195788145 0.54804211855
0.00000000000 0.45164442062 0.54835557938
0.00000000000 0.45130506158 0.54869496822
0.00000000000 0.45253139734 0.54746854305
0.00000000000 0.45059207082 0.54940789938
0.00000000000 0.44965988398 0.55034011602
0.00000000000 0.45209035277 0.54790961742
0.00000000000 0.45113372803 0.54886621237
1.00000000000 0.44985422492 0.55014574528
0.00000000000 0.45210814476 0.54789185524
0.00000000000 0.45243409276 0.54756593704
0.00000000000 0.44987353683 0.55012649298
0.00000000000 0.44997745752 0.55002254248
0.00000000000 0.44981625676 0.55018371344
0.00000000000 0.45155331492 0.54844665527
1.00000000000 0.45172736049 0.54827260971
1.00000000000 0.45127779245 0.54872220755
0.00000000000 0.45015984774 0.54984015226
0.00000000000 0.45187208056 0.54812794924
1.00000000000 0.45157083869 0.54842919111
0.00000000000 0.45105686784 0.54894310236
0.00000000000 0.45062446594 0.54937553406
0.00000000000 0.45084974170 0.54915028811
0.00000000000 0.45217943192 0.54782056808
0.00000000000 0.44986793399 0.55013209581
0.00000000000 0.45064789057 0.54935210943
0.00000000000 0.45157730579 0.54842269421
0.00000000000 0.45024707913 0.54975289106
1.00000000000 0.45144018531 0.54855984449
1.00000000000 0.45173618197 0.54826378822
0.00000000000 0.45209014416 0.54790991545
0.00000000000 0.45239686966 0.54760313034
0.00000000000 0.45074474812 0.54925531149
0.00000000000 0.45206281543 0.54793715477
0.00000000000 0.44975787401 0.55024212599
0.00000000000 0.45166751742 0.54833245277
0.00000000000 0.45121112466 0.54878890514
0.00000000000 0.44989541173 0.55010455847
0.00000000000 0.45046076179 0.54953926802
1.00000000000 0.45189681649 0.54810315371
0.00000000000 0.45200809836 0.54799187183
0.00000000000 0.45216971636 0.54783034325
0.00000000000 0.45168378949 0.54831624031
0.00000000000 0.45062065125 0.54937934875
0.00000000000 0.45201700926 0.54798299074
0.00000000000 0.44970235229 0.55029767752
0.00000000000 0.45094695687 0.54905301332
0.00000000000 0.45107591152 0.54892414808
0.00000000000 0.45283907652 0.54716098309
0.00000000000 0.44969043136 0.55030953884
0.00000000000 0.45201468468 0.54798525572
1.00000000000 0.45023357868 0.54976642132
0.00000000000 0.45084783435 0.54915219545
0.00000000000 0.45029383898 0.54970616102
0.00000000000 0.45021045208 0.54978954792
1.00000000000 0.45211568475 0.54788428545
1.00000000000 0.45108604431 0.54891401529
0.00000000000 0.45087891817 0.54912108183
0.00000000000 0.45129802823 0.54870200157
0.00000000000 0.45102432370 0.54897570610
0.00000000000 0.45170435309 0.54829561710
1.00000000000 0.45191779733 0.54808217287
0.00000000000 0.45042794943 0.54957205057
0.00000000000 0.45241653919 0.54758352041
0.00000000000 0.45175081491 0.54824918509
0.00000000000 0.45153963566 0.54846036434
0.00000000000 0.45157611370 0.54842388630
0.00000000000 0.45190405846 0.54809600115
0.00000000000 0.45245921612 0.54754078388
0.00000000000 0.45049127936 0.54950875044
0.00000000000 0.45148029923 0.54851967096
0.00000000000 0.45178979635 0.54821020365
1.00000000000 0.45142781734 0.54857218266
0.00000000000 0.45028492808 0.54971504211
0.00000000000 0.45027127862 0.54972869158
1.00000000000 0.45013955235 0.54986041784
0.00000000000 0.45053371787 0.54946625233
0.00000000000 0.45181307197 0.54818689823
0.00000000000 0.45139896870 0.54860103130
0.00000000000 0.45031115413 0.54968887568
1.00000000000 0.45276746154 0.54723250866
0.00000000000 0.45031291246 0.54968708754
0.00000000000 0.45234203339 0.54765802622
0.00000000000 0.45161420107 0.54838579893
0.00000000000 0.45124632120 0.54875361919
0.00000000000 0.45157566667 0.54842436314
1.00000000000 0.45198762417 0.54801243544
0.00000000000 0.45175838470 0.54824161530
1.00000000000 0.45184770226 0.54815226793
0.00000000000 0.45185244083 0.54814755917
0.00000000000 0.45060187578 0.54939812422
0.00000000000 0.45116984844 0.54883009195
0.00000000000 0.45104622841 0.54895377159
1.00000000000 0.45263120532 0.54736882448
0.00000000000 0.45090645552 0.54909354448
0.00000000000 0.45073297620 0.54926699400
0.00000000000 0.45104125142 0.54895877838
0.00000000000 0.44991052151 0.55008947849
0.00000000000 0.45157301426 0.54842692614
0.00000000000 0.45059806108 0.54940193892
0.00000000000 0.45015716553 0.54984283447
0.00000000000 0.45104408264 0.54895591736
0.00000000000 0.45144307613 0.54855692387
0.00000000000 0.45098745823 0.54901260138
0.00000000000 0.45097729564 0.54902273417
0.00000000000 0.45206660032 0.54793339968
0.00000000000 0.45155659318 0.54844337702
0.00000000000 0.45163273811 0.54836726189
0.00000000000 0.44970819354 0.55029177666
1.00000000000 0.45147225261 0.54852771759
0.00000000000 0.45031610131 0.54968386889
0.00000000000 0.44994100928 0.55005896091
0.00000000000 0.45019266009 0.54980731010
0.00000000000 0.45119225979 0.54880774021
0.00000000000 0.45130261779 0.54869735241
0.00000000000 0.45203745365 0.54796260595
1.00000000000 0.45269018412 0.54730981588
0.00000000000 0.45203581452 0.54796421528
0.00000000000 0.45207768679 0.54792231321
0.00000000000 0.45096713305 0.54903292656
0.00000000000 0.45010828972 0.54989171028
0.00000000000 0.45188778639 0.54811227322
1.00000000000 0.45120137930 0.54879862070
0.00000000000 0.45116963983 0.54883038998
0.00000000000 0.45149537921 0.54850459099
0.00000000000 0.45105892420 0.54894107580
0.00000000000 0.45153465867 0.54846531153
1.00000000000 0.45167216659 0.54832780361
0.00000000000 0.45190569758 0.54809427261
0.00000000000 0.45164129138 0.54835873842
1.00000000000 0.45225206017 0.54774796963
0.00000000000 0.45001176000 0.54998826981
0.00000000000 0.44980713725 0.55019289255
0.00000000000 0.45021745563 0.54978257418
0.00000000000 0.45000758767 0.54999238253
0.00000000000 0.45151585340 0.54848408699
0.00000000000 0.45096287131 0.54903709888
1.00000000000 0.45129257441 0.54870742559
1.00000000000 0.45134919882 0.54865086079
0.00000000000 0.45072197914 0.54927802086
1.00000000000 0.45006585121 0.54993408918
0.00000000000 0.45206809044 0.54793184996
0.00000000000 0.45157873631 0.54842126369
0.00000000000 0.45182493329 0.54817509651
0.00000000000 0.45218193531 0.54781806469
1.00000000000 0.45103132725 0.54896867275
0.00000000000 0.45000427961 0.54999572039
0.00000000000 0.45038840175 0.54961162806
0.00000000000 0.45137083530 0.54862916470
0.00000000000 0.45160570741 0.54839426279
0.00000000000 0.45110276341 0.54889720678
0.00000000000 0.45136359334 0.54863643646
0.00000000000 0.45129966736 0.54870033264
0.00000000000 0.45117092133 0.54882907867
0.00000000000 0.45260584354 0.54739409685
0.00000000000 0.45073074102 0.54926925898
0.00000000000 0.45243775845 0.54756224155
0.00000000000 0.45118278265 0.54881727695
0.00000000000 0.45085376501 0.54914629459
0.00000000000 0.44982996583 0.55017000437
1.00000000000 0.45097887516 0.54902112484
1.00000000000 0.45153585076 0.54846417904
0.00000000000 0.45022141933 0.54977858067
1.00000000000 0.45033639669 0.54966354370
0.00000000000 0.45118579268 0.54881417751
0.00000000000 0.45217177272 0.54782825708
0.00000000000 0.45077890158 0.54922115803
0.00000000000 0.45204079151 0.54795920849
0.00000000000 0.45165583491 0.54834413528
1.00000000000 0.45007008314 0.54992991686
0.00000000000 0.45135796070 0.54864209890
0.00000000000 0.45030143857 0.54969859123
1.00000000000 0.45078215003 0.54921787977
0.00000000000 0.44988062978 0.55011940002
0.00000000000 0.45160716772 0.54839283228
0.00000000000 0.45056417584 0.54943579435
0.00000000000 0.45060962439 0.54939031601
0.00000000000 0.45019692183 0.54980307817
1.00000000000 0.45214402676 0.54785597324
0.00000000000 0.44992312789 0.55007684231
0.00000000000 0.45101377368 0.54898625612
0.00000000000 0.45181471109 0.54818528891
0.00000000000 0.45082652569 0.54917347431
0.00000000000 0.45140445232 0.54859548807
0.00000000000 0.45193111897 0.54806882143
0.00000000000 0.45035955310 0.54964041710
0.00000000000 0.45051246881 0.54948753119
0.00000000000 0.45150029659 0.54849964380
0.00000000000 0.44982558489 0.55017441511
0.00000000000 0.45134475827 0.54865527153
0.00000000000 0.45117962360 0.54882031679
0.00000000000 0.45219874382 0.54780125618
0.00000000000 0.45100432634 0.54899567366
0.00000000000 0.45047876239 0.54952126741
0.00000000000 0.45096561313 0.54903435707
0.00000000000 0.45072945952 0.54927057028
0.00000000000 0.45203459263 0.54796540737
0.00000000000 0.45152601600 0.54847401381
0.00000000000 0.44992592931 0.55007404089
1.00000000000 0.45158973336 0.54841029644
0.00000000000 0.45208361745 0.54791635275
0.00000000000 0.45140695572 0.54859304428
0.00000000000 0.45167481899 0.54832512140
0.00000000000 0.45036420226 0.54963576794
0.00000000000 0.45171648264 0.54828351736
0.00000000000 0.44991227984 0.55008774996
0.00000000000 0.45144861937 0.54855138063
0.00000000000 0.45273247361 0.54726755619
0.00000000000 0.45094326138 0.54905676842
0.00000000000 0.44994729757 0.55005270243
0.00000000000 0.45071718097 0.54928284883
0.00000000000 0.44988423586 0.55011576414
0.00000000000 0.44974398613 0.55025601387
0.00000000000 0.45022177696 0.54977828264
0.00000000000 0.45088884234 0.54911112785
0.00000000000 0.45151636004 0.54848361015
1.00000000000 0.45127272606 0.54872727394
0.00000000000 0.45156320930 0.54843676090
0.00000000000 0.45163342357 0.54836654663
0.00000000000 0.45030200481 0.54969799519
0.00000000000 0.45109954476 0.54890048504
0.00000000000 0.45042684674 0.54957318306
1.00000000000 0.45070445538 0.54929554462
0.00000000000 0.45033285022 0.54966717958
0.00000000000 0.45182844996 0.54817157984
0.00000000000 0.45142978430 0.54857015610
0.00000000000 0.45081758499 0.54918241501
1.00000000000 0.45187404752 0.54812598228
0.00000000000 0.45258188248 0.54741811752
0.00000000000 0.45228716731 0.54771280289
0.00000000000 0.45229139924 0.54770863056
0.00000000000 0.44956427813 0.55043578148
0.00000000000 0.45231366158 0.54768633842
0.00000000000 0.45237174630 0.54762828350
0.00000000000 0.45167958736 0.54832041264
0.00000000000 0.45073586702 0.54926413298
0.00000000000 0.45156469941 0.54843533039
1.00000000000 0.45191562176 0.54808437824
0.00000000000 0.45116317272 0.54883682728
0.00000000000 0.45146542788 0.54853457212
0.00000000000 0.45156145096 0.54843854904
0.00000000000 0.44969037175 0.55030965805
1.00000000000 0.45167198777 0.54832798243
0.00000000000 0.45179039240 0.54820960760
0.00000000000 0.45181292295 0.54818701744
0.00000000000 0.45071709156 0.54928290844
0.00000000000 0.45151147246 0.54848849773
0.00000000000 0.45183834434 0.54816168547
0.00000000000 0.45053434372 0.54946565628
0.00000000000 0.45000088215 0.54999905825
0.00000000000 0.45033222437 0.54966783524
1.00000000000 0.45191708207 0.54808288813
0.00000000000 0.45257291198 0.54742705822
0.00000000000 0.45062276721 0.54937726259
0.00000000000 0.45194688439 0.54805314541
0.00000000000 0.44984674454 0.55015325546
1.00000000000 0.45007655025 0.54992341995
0.00000000000 0.45194077492 0.54805922508
0.00000000000 0.45197966695 0.54802030325
0.00000000000 0.45199686289 0.54800319672
0.00000000000 0.45089402795 0.54910600185
0.00000000000 0.45113086700 0.54886913300
0.00000000000 0.45192891359 0.54807108641
0.00000000000 0.45007327199 0.54992669821
1.00000000000 0.45011213422 0.54988783598
0.00000000000 0.45122638345 0.54877364635
0.00000000000 0.45198291540 0.54801708460
0.00000000000 0.45129212737 0.54870790243
0.00000000000 0.45362859964 0.54637140036
0.00000000000 0.45113164186 0.54886835814
0.00000000000 0.45205831528 0.54794168472
1.00000000000 0.45208454132 0.54791545868
0.00000000000 0.45168465376 0.54831534624
0.00000000000 0.44989064336 0.55010938644
1.00000000000 0.45234990120 0.54765015841
0.00000000000 0.45201891661 0.54798114300
0.00000000000 0.45014190674 0.54985803366
0.00000000000 0.45101878047 0.54898118973
0.00000000000 0.45179307461 0.54820686579
0.00000000000 0.45072185993 0.54927814007
1.00000000000 0.45024749637 0.54975253344
0.00000000000 0.45071420074 0.54928576946
1.00000000000 0.45129013062 0.54870986938
0.00000000000 0.44959720969 0.55040276051
0.00000000000 0.45125544071 0.54874449968
0.00000000000 0.45097422600 0.54902571440
0.00000000000 0.45208036900 0.54791963100
0.00000000000 0.45230692625 0.54769307375
0.00000000000 0.45015496016 0.54984503984
0.00000000000 0.45130792260 0.54869204760
1.00000000000 0.45050728321 0.54949271679
1.00000000000 0.45148041844 0.54851955175
0.00000000000 0.44952836633 0.55047166348
0.00000000000 0.45114836097 0.54885166883
0.00000000000 0.44963657856 0.55036348104
0.00000000000 0.45164516568 0.54835486412
0.00000000000 0.45185726881 0.54814279079
0.00000000000 0.45026335120 0.54973667860
0.00000000000 0.45151317120 0.54848682880
0.00000000000 0.45027244091 0.54972755909
0.00000000000 0.45070964098 0.54929029942
0.00000000000 0.44975805283 0.55024194717
0.00000000000 0.45045942068 0.54954057932
0.00000000000 0.45106384158 0.54893618822
0.00000000000 0.45195794106 0.54804205894
1.00000000000 0.45044907928 0.54955095053
0.00000000000 0.45182985067 0.54817014933
0.00000000000 0.45001056790 0.54998940229
0.00000000000 0.45194229484 0.54805773497
0.00000000000 0.45153436065 0.54846560955
1.00000000000 0.45281693339 0.54718303680
1.00000000000 0.45207327604 0.54792672396
0.00000000000 0.44987717271 0.55012279749
0.00000000000 0.45009994507 0.54990005493
0.00000000000 0.44999712706 0.55000287294
1.00000000000 0.44997644424 0.55002355576
0.00000000000 0.45206478238 0.54793524742
0.00000000000 0.45124107599 0.54875892401
1.00000000000 0.45230391622 0.54769611359
0.00000000000 0.45136275887 0.54863721132
0.00000000000 0.45176959038 0.54823040962
0.00000000000 0.45027726889 0.54972273111
0.00000000000 0.45201489329 0.54798507690
0.00000000000 0.45147630572 0.54852372408
0.00000000000 0.45027524233 0.54972481728
1.00000000000 0.45191615820 0.54808390141
1.00000000000 0.45307010412 0.54692989588
1.00000000000 0.45176270604 0.54823732376
0.00000000000 0.44998031855 0.55001962185
0.00000000000 0.45119753480 0.54880243540
0.00000000000 0.44989973307 0.55010026693
0.00000000000 0.45133677125 0.54866319895
0.00000000000 0.45058077574 0.54941922426
0.00000000000 0.45178031921 0.54821968079
0.00000000000 0.44979131222 0.55020868778
0.00000000000 0.45214349031 0.54785650969
0.00000000000 0.45018887520 0.54981112480
1.00000000000 0.45171368122 0.54828631878
0.00000000000 0.45199972391 0.54800021648
0.00000000000 0.45193427801 0.54806572199
0.00000000000 0.45182418823 0.54817581177
0.00000000000 0.45084613562 0.54915380478
0.00000000000 0.45143428445 0.54856574535
0.00000000000 0.44978070259 0.55021929741
0.00000000000 0.45129507780 0.54870492220
1.00000000000 0.45183378458 0.54816621542
0.00000000000 0.45003971457 0.54996025562
1.00000000000 0.45038956404 0.54961043596
0.00000000000 0.45050239563 0.54949760437
0.00000000000 0.45294424891 0.54705572128
0.00000000000 0.45160382986 0.54839617014
1.00000000000 0.45166686177 0.54833316803
0.00000000000 0.45006391406 0.54993611574
0.00000000000 0.44989120960 0.55010879040
0.00000000000 0.45139166713 0.54860836267
0.00000000000 0.45078739524 0.54921263456
1.00000000000 0.45161354542 0.54838645458
1.00000000000 0.45310840011 0.54689162970
0.00000000000 0.45106431842 0.54893571138
0.00000000000 0.45106154680 0.54893845320
1.00000000000 0.45210188627 0.54789811373
0.00000000000 0.45166927576 0.54833072424
0.00000000000 0.45173022151 0.54826974869
0.00000000000 0.44982695580 0.55017304420
0.00000000000 0.45135948062 0.54864048958
0.00000000000 0.44997182488 0.55002820492
0.00000000000 0.45198732615 0.54801267385
1.00000000000 0.45175310969 0.54824686050
0.00000000000 0.45147612691 0.54852384329
0.00000000000 0.45078465343 0.54921531677
1.00000000000 0.45238065720 0.54761934280
0.00000000000 0.45140960813 0.54859036207
0.00000000000 0.44987046719 0.55012953281
0.00000000000 0.45122098923 0.54877901077
0.00000000000 0.45236629248 0.54763370752
0.00000000000 0.45082908869 0.54917091131
0.00000000000 0.44972673059 0.55027329922
0.00000000000 0.45001834631 0.54998165369
1.00000000000 0.45179378986 0.54820621014
0.00000000000 0.44982695580 0.55017304420
0.00000000000 0.45191356540 0.54808646441
0.00000000000 0.45123049617 0.54876947403
0.00000000000 0.45207417011 0.54792582989
0.00000000000 0.45176684856 0.54823315144
0.00000000000 0.45013982058 0.54986017942
0.00000000000 0.45048719645 0.54951274395
0.00000000000 0.45193377137 0.54806625843
1.00000000000 0.45175454021 0.54824548960
0.00000000000 0.45037996769 0.54961997271
0.00000000000 0.44993051887 0.55006951094
0.00000000000 0.45152932405 0.54847067595
0.00000000000 0.45160821080 0.54839181900
0.00000000000 0.45126849413 0.54873150587
0.00000000000 0.45078936219 0.54921060801
0.00000000000 0.45192265511 0.54807734489
1.00000000000 0.45207631588 0.54792368412
0.00000000000 0.45223045349 0.54776960611
0.00000000000 0.45173418522 0.54826581478
0.00000000000 0.45191001892 0.54808998108
0.00000000000 0.45029079914 0.54970914125
0.00000000000 0.45145538449 0.54854458570
0.00000000000 0.45211306214 0.54788690805
0.00000000000 0.45087957382 0.54912042618
0.00000000000 0.45058473945 0.54941523075
0.00000000000 0.45158952475 0.54841053486
1.00000000000 0.44976654649 0.55023348331
0.00000000000 0.45053046942 0.54946959019
0.00000000000 0.45073392987 0.54926609993
0.00000000000 0.44969967008 0.55030030012
0.00000000000 0.45065727830 0.54934275150
0.00000000000 0.45093494654 0.54906505346
0.00000000000 0.45150402188 0.54849600792
0.00000000000 0.45061144233 0.54938852787
1.00000000000 0.45202097297 0.54797899723
0.00000000000 0.45159345865 0.54840660095
0.00000000000 0.45173108578 0.54826891422
0.00000000000 0.45307263732 0.54692739248
0.00000000000 0.45156297088 0.54843699932
0.00000000000 0.45138636231 0.54861366749
1.00000000000 0.45157688856 0.54842305183
1.00000000000 0.45125886798 0.54874116182
0.00000000000 0.45083820820 0.54916179180
0.00000000000 0.45043426752 0.54956567287
0.00000000000 0.45000320673 0.54999679327
0.00000000000 0.45089444518 0.54910552502
0.00000000000 0.45080459118 0.54919540882
0.00000000000 0.45167773962 0.54832226038
0.00000000000 0.45138037205 0.54861962795
0.00000000000 0.45195475221 0.54804521799
0.00000000000 0.45182353258 0.54817640781
1.00000000000 0.45281997323 0.54718005657
0.00000000000 0.45015445352 0.54984557629
0.00000000000 0.45026868582 0.54973125458
0.00000000000 0.45064082742 0.54935920238
0.00000000000 0.45145934820 0.54854071140
0.00000000000 0.45140933990 0.54859066010
0.00000000000 0.45054543018 0.54945451021
0.00000000000 0.45001414418 0.54998582602
0.00000000000 0.45224747062 0.54775249958
0.00000000000 0.45201930404 0.54798072577
0.00000000000 0.45164707303 0.54835295677
0.00000000000 0.45036578178 0.54963421822
0.00000000000 0.44970768690 0.55029225349
0.00000000000 0.45116776228 0.54883223772
1.00000000000 0.45076543093 0.54923456907
0.00000000000 0.45000910759 0.54999095201
0.00000000000 0.45156642795 0.54843360186
0.00000000000 0.45069345832 0.54930651188
0.00000000000 0.45046365261 0.54953634739
0.00000000000 0.45198825002 0.54801172018
0.00000000000 0.45076999068 0.54922997952
0.00000000000 0.44993048906 0.55006951094
1.00000000000 0.45088365674 0.54911631346
0.00000000000 0.45199427009 0.54800570011
0.00000000000 0.45175358653 0.54824638367
0.00000000000 0.45191943645 0.54808056355
0.00000000000 0.45013976097 0.54986023903
0.00000000000 0.45170834661 0.54829168320
1.00000000000 0.45147773623 0.54852223396
0.00000000000 0.45071196556 0.54928803444
0.00000000000 0.45048844814 0.54951155186
0.00000000000 0.45224905014 0.54775100946
1.00000000000 0.45149376988 0.54850620031
0.00000000000 0.45027092099 0.54972910881
1.00000000000 0.45171511173 0.54828494787
0.00000000000 0.45144915581 0.54855090380
0.00000000000 0.45079445839 0.54920554161
0.00000000000 0.45099753141 0.54900246859
0.00000000000 0.45022314787 0.54977679253
0.00000000000 0.45210409164 0.54789590836
0.00000000000 0.45164963603 0.54835039377
0.00000000000 0.44977194071 0.55022811890
0.00000000000 0.45094454288 0.54905545712
0.00000000000 0.45095497370 0.54904508591
0.00000000000 0.45086458325 0.54913538694
0.00000000000 0.45239368081 0.54760628939
0.00000000000 0.45096027851 0.54903972149
0.00000000000 0.45079293847 0.54920709133
0.00000000000 0.44982448220 0.55017548800
1.00000000000 0.45206242800 0.54793763161
0.00000000000 0.44980320334 0.55019682646
0.00000000000 0.44980067015 0.55019927025
0.00000000000 0.44996467233 0.55003529787
0.00000000000 0.45294377208 0.54705625772
0.00000000000 0.44977939129 0.55022060871
0.00000000000 0.45085418224 0.54914581776
0.00000000000 0.45215582848 0.54784411192
0.00000000000 0.45207494497 0.54792505503
0.00000000000 0.45149311423 0.54850691557
1.00000000000 0.45076149702 0.54923844337
0.00000000000 0.45160380006 0.54839617014
0.00000000000 0.45057609677 0.54942387342
0.00000000000 0.45084354281 0.54915648699
0.00000000000 0.45183542371 0.54816460609
0.00000000000 0.45165625215 0.54834371805
0.00000000000 0.45129981637 0.54870015383
0.00000000000 0.44969868660 0.55030131340
0.00000000000 0.45056286454 0.54943716526
0.00000000000 0.45082801580 0.54917192459
0.00000000000 0.45145565271 0.54854434729
0.00000000000 0.45096519589 0.54903477430
1.00000000000 0.45234540105 0.54765462875
1.00000000000 0.45279759169 0.54720246792
0.00000000000 0.45111885667 0.54888117313
1.00000000000 0.45121377707 0.54878622293
0.00000000000 0.45195791125 0.54804205894
0.00000000000 0.45020994544 0.54979008436
0.00000000000 0.45070108771 0.54929894209
0.00000000000 0.44968855381 0.55031144619
0.00000000000 0.45166721940 0.54833281040
0.00000000000 0.45126771927 0.54873228073
0.00000000000 0.45109778643 0.54890221357
0.00000000000 0.45220056176 0.54779946804
0.00000000000 0.45012575388 0.54987424612
0.00000000000 0.45105656981 0.54894340038
0.00000000000 0.45195069909 0.54804927111
0.00000000000 0.45112946630 0.54887056351
0.00000000000 0.45093587041 0.54906409979
0.00000000000 0.45000979304 0.54999023676
1.00000000000 0.45149061084 0.54850935936
0.00000000000 0.45155292749 0.54844707251
0.00000000000 0.45090010762 0.54909992218
0.00000000000 0.45059400797 0.54940599203
1.00000000000 0.45124548674 0.54875451326
0.00000000000 0.45046940446 0.54953056574
0.00000000000 0.45118403435 0.54881596565
1.00000000000 0.45100837946 0.54899162054
0.00000000000 0.45135077834 0.54864925146
0.00000000000 0.45106512308 0.54893487692
0.00000000000 0.45059925318 0.54940074682
1.00000000000 0.44994190335 0.55005806684
0.00000000000 0.45024254918 0.54975742102
0.00000000000 0.45133706927 0.54866290092
0.00000000000 0.45055717230 0.54944276810
0.00000000000 0.45088168979 0.54911828041
0.00000000000 0.45231249928 0.54768753052
1.00000000000 0.45181828737 0.54818171263
0.00000000000 0.45162549615 0.54837447405
0.00000000000 0.44998314977 0.55001682043
0.00000000000 0.45010125637 0.54989874363
0.00000000000 0.45006904006 0.54993093014
0.00000000000 0.45081421733 0.54918581247
0.00000000000 0.44987484813 0.55012512207
0.00000000000 0.45089986920 0.54910010099
0.00000000000 0.45102524757 0.54897469282
0.00000000000 0.45105201006 0.54894798994
0.00000000000 0.45244899392 0.54755103588
0.00000000000 0.45201030374 0.54798966646
0.00000000000 0.45158168674 0.54841828346
0.00000000000 0.44983300567 0.55016696453
1.00000000000 0.45216670632 0.54783332348
0.00000000000 0.45084705949 0.54915297031
0.00000000000 0.45030009747 0.54969990253
0.00000000000 0.44982683659 0.55017316341
0.00000000000 0.45121273398 0.54878723621
0.00000000000 0.45083823800 0.54916173220
0.00000000000 0.45112317801 0.54887676239
0.00000000000 0.45312166214 0.54687839746
0.00000000000 0.44999259710 0.55000740290
0.00000000000 0.45170733333 0.54829263687
0.00000000000 0.45098081231 0.54901915789
0.00000000000 0.45178607106 0.54821395874
0.00000000000 0.45160028338 0.54839974642
0.00000000000 0.44963210821 0.55036789179
0.00000000000 0.45131784678 0.54868215322
0.00000000000 0.45109257102 0.54890739918
1.00000000000 0.45053306222 0.54946696758
0.00000000000 0.45133548975 0.54866445065
0.00000000000 0.45162162185 0.54837840796
0.00000000000 0.45096072555 0.54903924465
0.00000000000 0.45199990273 0.54800009727
1.00000000000 0.45212978125 0.54787021875
1.00000000000 0.45217657089 0.54782342911
0.00000000000 0.45141366124 0.54858630896
0.00000000000 0.45048052073 0.54951947927
0.00000000000 0.45186010003 0.54813987017
0.00000000000 0.45173504949 0.54826498032
0.00000000000 0.45154905319 0.54845094681
0.00000000000 0.45030584931 0.54969412088
0.00000000000 0.44998916984 0.55001085997
0.00000000000 0.45247295499 0.54752701521
0.00000000000 0.45019316673 0.54980677366
0.00000000000 0.45213010907 0.54786992073
0.00000000000 0.45119255781 0.54880744219
0.00000000000 0.45037910342 0.54962086678
1.00000000000 0.45229879022 0.54770117998
0.00000000000 0.45016276836 0.54983723164
0.00000000000 0.45210966468 0.54789030552
0.00000000000 0.44981420040 0.55018579960
1.00000000000 0.44996702671 0.55003297329
0.00000000000 0.45103058219 0.54896938801
1.00000000000 0.45200952888 0.54799044132
0.00000000000 0.45083165169 0.54916834831
0.00000000000 0.45180439949 0.54819554090
0.00000000000 0.45107936859 0.54892063141
0.00000000000 0.45192474127 0.54807525873
0.00000000000 0.45073100924 0.54926902056
0.00000000000 0.45159575343 0.54840421677
0.00000000000 0.45212885737 0.54787111282
0.00000000000 0.45144519210 0.54855483770
0.00000000000 0.45318695903 0.54681301117
0.00000000000 0.45081624389 0.54918372631
0.00000000000 0.44993460178 0.55006539822
0.00000000000 0.45200100541 0.54799902439
0.00000000000 0.45116776228 0.54883223772
0.00000000000 0.45217031240 0.54782968760
0.00000000000 0.45141592622 0.54858404398
0.00000000000 0.45137408376 0.54862594604
0.00000000000 0.45078790188 0.54921203852
0.00000000000 0.45118156075 0.54881840944
0.00000000000 0.45041334629 0.54958665371
0.00000000000 0.45026177168 0.54973822832
1.00000000000 0.45130541921 0.54869455099
0.00000000000 0.44979822636 0.55020177364
0.00000000000 0.45008951426 0.54991054535
0.00000000000 0.45120835304 0.54879170656
0.00000000000 0.45192959905 0.54807043076
1.00000000000 0.45173209906 0.54826790094
0.00000000000 0.45031863451 0.54968136549
0.00000000000 0.45138496161 0.54861503839
0.00000000000 0.45201876760 0.54798126221
0.00000000000 0.45084881783 0.54915118217
0.00000000000 0.45198655128 0.54801344872
0.00000000000 0.45121368766 0.54878628254
1.00000000000 0.45235446095 0.54764550924
1.00000000000 0.44990515709 0.55009490252
0.00000000000 0.45066368580 0.54933631420
0.00000000000 0.45167765021 0.54832231998
0.00000000000 0.44979107380 0.55020898581
0.00000000000 0.44995385408 0.55004620552
0.00000000000 0.45147079229 0.54852920771
0.00000000000 0.45078241825 0.54921758175
0.00000000000 0.45174714923 0.54825288057
1.00000000000 0.45202603936 0.54797399044
0.00000000000 0.44980609417 0.55019396544
0.00000000000 0.45051842928 0.54948157072
0.00000000000 0.45143902302 0.54856097698
0.00000000000 0.45072704554 0.54927289486
0.00000000000 0.45208370686 0.54791629314
0.00000000000 0.45100161433 0.54899835587
1.00000000000 0.45179802179 0.54820203781
1.00000000000 0.45091065764 0.54908931255
0.00000000000 0.44968339801 0.55031657219
0.00000000000 0.45061308146 0.54938685894
0.00000000000 0.44975972176 0.55024027824
0.00000000000 0.45056998730 0.54943007231
0.00000000000 0.45150664449 0.54849332571
0.00000000000 0.45008978248 0.54991024733
0.00000000000 0.45131301880 0.54868692160
0.00000000000 0.45102575421 0.54897427559
0.00000000000 0.45174685121 0.54825311899
0.00000000000 0.44995692372 0.55004310608
0.00000000000 0.45137172937 0.54862833023
0.00000000000 0.45160752535 0.54839247465
0.00000000000 0.45201677084 0.54798322916
0.00000000000 0.44973385334 0.55026614666
0.00000000000 0.45058566332 0.54941433668
0.00000000000 0.45116969943 0.54883033037
0.00000000000 0.45246967673 0.54753029346
0.00000000000 0.45164060593 0.54835939407
1.00000000000 0.45206117630 0.54793882370
0.00000000000 0.45163491368 0.54836505651
0.00000000000 0.44971278310 0.55028718710
0.00000000000 0.45126962662 0.54873037338
0.00000000000 0.45082110167 0.54917889833
0.00000000000 0.45006448030 0.54993546009
0.00000000000 0.45156326890 0.54843676090
0.00000000000 0.44999608397 0.55000388622
0.00000000000 0.45029160380 0.54970842600
1.00000000000 0.45153725147 0.54846274853
0.00000000000 0.45264694095 0.54735302925
1.00000000000 0.45232757926 0.54767239094
0.00000000000 0.45024019480 0.54975980520
1.00000000000 0.45083183050 0.54916816950
0.00000000000 0.44974097610 0.55025905371
0.00000000000 0.45160877705 0.54839122295
0.00000000000 0.45235884190 0.54764115810
0.00000000000 0.45216578245 0.54783415794
0.00000000000 0.45208233595 0.54791760445
0.00000000000 0.45143508911 0.54856485128
0.00000000000 0.45084261894 0.54915744066
1.00000000000 0.45134681463 0.54865318537
0.00000000000 0.44965139031 0.55034863949
0.00000000000 0.45147800446 0.54852199554
0.00000000000 0.45206093788 0.54793906212
0.00000000000 0.45209729671 0.54790276289
0.00000000000 0.45091882348 0.54908120632
0.00000000000 0.45092004538 0.54908001423
1.00000000000 0.45041432977 0.54958564043
0.00000000000 0.45159941912 0.54840058088
0.00000000000 0.45294308662 0.54705691338
0.00000000000 0.45062071085 0.54937928915
0.00000000000 0.45152071118 0.54847931862
0.00000000000 0.45240098238 0.54759901762
0.00000000000 0.45182597637 0.54817408323
0.00000000000 0.45145237446 0.54854768515
0.00000000000 0.45167732239 0.54832267761
0.00000000000 0.45273303986 0.54726696014
0.00000000000 0.45065546036 0.54934453964
0.00000000000 0.45156261325 0.54843735695
0.00000000000 0.45175021887 0.54824978113
0.00000000000 0.45225128531 0.54774874449
0.00000000000 0.45189774036 0.54810231924
1.00000000000 0.45210587978 0.54789412022
0.00000000000 0.45240783691 0.54759216309
0.00000000000 0.45155882835 0.54844117165
0.00000000000 0.44977545738 0.55022454262
0.00000000000 0.44978854060 0.55021142960
0.00000000000 0.45123541355 0.54876458645
0.00000000000 0.44986793399 0.55013209581
0.00000000000 0.45088976622 0.54911023378
0.00000000000 0.45029604435 0.54970395565
0.00000000000 0.44983020425 0.55016982555
1.00000000000 0.45001459122 0.54998546839
0.00000000000 0.45004495978 0.54995501041
0.00000000000 0.44968327880 0.55031675100
0.00000000000 0.45116102695 0.54883897305
0.00000000000 0.45216736197 0.54783266783
0.00000000000 0.45120498538 0.54879498482
1.00000000000 0.45079156756 0.54920846224
0.00000000000 0.45054140687 0.54945856333
0.00000000000 0.45207226276 0.54792773724
0.00000000000 0.45200458169 0.54799538851
0.00000000000 0.45022249222 0.54977744818
0.00000000000 0.45075833797 0.54924166203
0.00000000000 0.45108538866 0.54891461134
0.00000000000 0.45163568854 0.54836434126
0.00000000000 0.45240059495 0.54759943485
0.00000000000 0.45196864009 0.54803133011
0.00000000000 0.45197728276 0.54802274704
0.00000000000 0.45162680745 0.54837322235
0.00000000000 0.45150920749 0.54849076271
0.00000000000 0.45092937350 0.54907065630
0.00000000000 0.44996899366 0.55003100634
0.00000000000 0.45269668102 0.54730331898
0.00000000000 0.45147582889 0.54852414131
0.00000000000 0.45094347000 0.54905653000
0.00000000000 0.45178148150 0.54821854830
0.00000000000 0.45159456134 0.54840540886
0.00000000000 0.45222494006 0.54777503014
0.00000000000 0.45051401854 0.54948598146
0.00000000000 0.44967427850 0.55032575130
1.00000000000 0.45153322816 0.54846680164
0.00000000000 0.45148271322 0.54851728678
1.00000000000 0.45010703802 0.54989296198
0.00000000000 0.45062983036 0.54937016964
0.00000000000 0.45087534189 0.54912471771
0.00000000000 0.45143619180 0.54856377840
0.00000000000 0.45066928864 0.54933071136
0.00000000000 0.45213815570 0.54786181450
0.00000000000 0.45227649808 0.54772353172
1.00000000000 0.45131975412 0.54868024588
0.00000000000 0.45109006763 0.54890996218
0.00000000000 0.44961491227 0.55038511753
0.00000000000 0.45204296708 0.54795700312
0.00000000000 0.45171174407 0.54828828573
0.00000000000 0.45169302821 0.54830694199
0.00000000000 0.45080262423 0.54919737577
0.00000000000 0.45138591528 0.54861408472
1.00000000000 0.45223003626 0.54777002335
0.00000000000 0.45069310069 0.54930692911
0.00000000000 0.45203343034 0.54796659946
0.00000000000 0.45192560554 0.54807442427
0.00000000000 0.44991219044 0.55008780956
0.00000000000 0.45136117935 0.54863882065
0.00000000000 0.45074892044 0.54925113916
0.00000000000 0.45188900828 0.54811102152
0.00000000000 0.45146030188 0.54853969812
0.00000000000 0.45067277551 0.54932725430
0.00000000000 0.45218694210 0.54781305790
0.00000000000 0.45152720809 0.54847276211
0.00000000000 0.45104238391 0.54895758629
0.00000000000 0.45107260346 0.54892742634
0.00000000000 0.44994843006 0.55005156994
0.00000000000 0.45088317990 0.54911679029
0.00000000000 0.44997519255 0.55002480745
0.00000000000 0.45172026753 0.54827970266
0.00000000000 0.45136913657 0.54863089323
0.00000000000 0.45100083947 0.54899919033
0.00000000000 0.45165181160 0.54834818840
0.00000000000 0.45312449336 0.54687547684
1.00000000000 0.45171299577 0.54828697443
0.00000000000 0.45168587565 0.54831415415
0.00000000000 0.45096713305 0.54903286695
0.00000000000 0.45108598471 0.54891401529
1.00000000000 0.45175224543 0.54824775457
0.00000000000 0.45251569152 0.54748427868
0.00000000000 0.45073395967 0.54926609993
0.00000000000 0.45038041472 0.54961961508
0.00000000000 0.44992205501 0.55007797480
1.00000000000 0.45155096054 0.54844903946
0.00000000000 0.45048210025 0.54951792955
0.00000000000 0.45257246494 0.54742753506
0.00000000000 0.44953498244 0.55046504736
0.00000000000 0.45046710968 0.54953283072
0.00000000000 0.45203664899 0.54796338081
0.00000000000 0.45155879855 0.54844123125
0.00000000000 0.44975203276 0.55024796724
0.00000000000 0.44990700483 0.55009299517
0.00000000000 0.45158478618 0.54841524363
0.00000000000 0.45150163770 0.54849839211
0.00000000000 0.45079913735 0.54920083284
0.00000000000 0.44990462065 0.55009537935
0.00000000000 0.45171371102 0.54828625917
0.00000000000 0.45235672593 0.54764330387
0.00000000000 0.45004782081 0.54995214939
0.00000000000 0.44962370396 0.55037629604
0.00000000000 0.45179909468 0.54820096493
0.00000000000 0.45272648335 0.54727345705
0.00000000000 0.45194637775 0.54805368185
0.00000000000 0.45210593939 0.54789406061
0.00000000000 0.44943252206 0.55056750774
0.00000000000 0.44989946485 0.55010056496
0.00000000000 0.45098388195 0.54901611805
0.00000000000 0.45273655653 0.54726350307
0.00000000000 0.44966617227 0.55033379793
0.00000000000 0.44961842895 0.55038160086
0.00000000000 0.45026412606 0.54973590374
0.00000000000 0.45196205378 0.54803794622
0.00000000000 0.45031249523 0.54968750477
0.00000000000 0.45204782486 0.54795217514
0.00000000000 0.45055738091 0.54944258928
0.00000000000 0.45125538111 0.54874461889
0.00000000000 0.45093247294 0.54906755686
1.00000000000 0.45096999407 0.54902994633
0.00000000000 0.45061653852 0.54938340187
0.00000000000 0.45139947534 0.54860055447
0.00000000000 0.45087534189 0.54912465811
1.00000000000 0.45224222541 0.54775780439
0.00000000000 0.45215225220 0.54784768820
0.00000000000 0.45132270455 0.54867726564
1.00000000000 0.45105966926 0.54894036055
0.00000000000 0.45146748424 0.54853254557
0.00000000000 0.45043870807 0.54956132174
1.00000000000 0.45039412379 0.54960584641
0.00000000000 0.45086959004 0.54913038015
0.00000000000 0.45035967231 0.54964035749
0.00000000000 0.45085525513 0.54914474487
0.00000000000 0.45180919766 0.54819077253
0.00000000000 0.45120432973 0.54879564047
0.00000000000 0.44959804416 0.55040198565
1.00000000000 0.45221823454 0.54778176546
0.00000000000 0.45138445497 0.54861551523
1.00000000000 0.45144420862 0.54855579138
0.00000000000 0.45177868009 0.54822134972
0.00000000000 0.44973635674 0.55026358366
0.00000000000 0.45063331723 0.54936665297
0.00000000000 0.44983753562 0.55016249418
0.00000000000 0.45079711080 0.54920285940
0.00000000000 0.45131704211 0.54868298769
0.00000000000 0.45118841529 0.54881155491
1.00000000000 0.45245450735 0.54754549265
0.00000000000 0.45207494497 0.54792505503
0.00000000000 0.45054206252 0.54945790768
0.00000000000 0.45195668936 0.54804337025
0.00000000000 0.45110955834 0.54889041185
0.00000000000 0.45177516341 0.54822480679
0.00000000000 0.45018887520 0.54981112480
0.00000000000 0.45138442516 0.54861563444
0.00000000000 0.45214396715 0.54785603285
0.00000000000 0.45221558213 0.54778438807
0.00000000000 0.45175710320 0.54824286699
0.00000000000 0.45092272758 0.54907727242
0.00000000000 0.45225298405 0.54774701595
0.00000000000 0.45185917616 0.54814082384
0.00000000000 0.45060920715 0.54939079285
0.00000000000 0.45021423697 0.54978573322
1.00000000000 0.45118787885 0.54881209135
1.00000000000 0.45160412788 0.54839587212
0.00000000000 0.45192140341 0.54807859659
0.00000000000 0.45058250427 0.54941743612
0.00000000000 0.45147755742 0.54852241278
1.00000000000 0.45215868950 0.54784125090
0.00000000000 0.45144355297 0.54855644703
0.00000000000 0.45041486621 0.54958510399
1.00000000000 0.45187655091 0.54812347889
0.00000000000 0.44996041059 0.55003958941
0.00000000000 0.45209187269 0.54790812731
0.00000000000 0.45075666904 0.54924333096
0.00000000000 0.45243740082 0.54756259918
0.00000000000 0.45184895396 0.54815101624
1.00000000000 0.45218646526 0.54781359434
0.00000000000 0.45147669315 0.54852330685
0.00000000000 0.45053800941 0.54946196079
0.00000000000 0.45152267814 0.54847729206
0.00000000000 0.45195123553 0.54804873466
0.00000000000 0.45085152984 0.54914849997
0.00000000000 0.44994458556 0.55005544424
0.00000000000 0.45245113969 0.54754889011
0.00000000000 0.45172131062 0.54827868938
0.00000000000 0.45288395882 0.54711610079
0.00000000000 0.45034140348 0.54965859652
0.00000000000 0.45038884878 0.54961115122
0.00000000000 0.45131185651 0.54868817329
0.00000000000 0.45176807046 0.54823195934
0.00000000000 0.45170566440 0.54829436541
0.00000000000 0.44992622733 0.55007374287
0.00000000000 0.45117825270 0.54882168770
0.00000000000 0.45150804520 0.54849201441
0.00000000000 0.45229586959 0.54770416021
0.00000000000 0.45114612579 0.54885387421
0.00000000000 0.45108288527 0.54891711473
0.00000000000 0.45105507970 0.54894495010
1.00000000000 0.45231246948 0.54768753052
0.00000000000 0.45154717565 0.54845285416
0.00000000000 0.45110672712 0.54889333248
0.00000000000 0.45040372014 0.54959630966
0.00000000000 0.45168054104 0.54831945896
1.00000000000 0.45202907920 0.54797095060
0.00000000000 0.45091292262 0.54908704758
0.00000000000 0.45144146681 0.54855853319
0.00000000000 0.45124909282 0.54875087738
1.00000000000 0.44961851835 0.55038154125
0.00000000000 0.45047622919 0.54952377081
0.00000000000 0.45128792524 0.54871207476
0.00000000000 0.45201411843 0.54798591137
0.00000000000 0.45105871558 0.54894131422
0.00000000000 0.44961696863 0.55038303137
0.00000000000 0.44956392050 0.55043607950
0.00000000000 0.45086944103 0.54913061857
0.00000000000 0.45251840353 0.54748159647
0.00000000000 0.45010903478 0.54989099503
0.00000000000 0.45033362508 0.54966634512
1.00000000000 0.45133054256 0.54866945744
0.00000000000 0.45141014457 0.54858982563
0.00000000000 0.45010557771 0.54989439249
0.00000000000 0.45149803162 0.54850196838
0.00000000000 0.45190060139 0.54809939861
0.00000000000 0.45167618990 0.54832381010
1.00000000000 0.45308870077 0.54691129923
0.00000000000 0.45018434525 0.54981565475
0.00000000000 0.45011654496 0.54988342524
1.00000000000 0.45068180561 0.54931825399
0.00000000000 0.45112031698 0.54887968302
0.00000000000 0.44978284836 0.55021721125
0.00000000000 0.44962105155 0.55037891865
0.00000000000 0.45221349597 0.54778647423
0.00000000000 0.44975203276 0.55024796724
0.00000000000 0.45086482167 0.54913520813
0.00000000000 0.45156437159 0.54843562841
0.00000000000 0.44996094704 0.55003905296
0.00000000000 0.45033943653 0.54966056347
0.00000000000 0.45017763972 0.54982239008
0.00000000000 0.45090427995 0.54909574986
0.00000000000 0.44966769218 0.55033224821
0.00000000000 0.45051699877 0.54948294163
0.00000000000 0.45178979635 0.54821020365
1.00000000000 0.45228660107 0.54771345854
0.00000000000 0.45168483257 0.54831516743
0.00000000000 0.45114934444 0.54885065556
0.00000000000 0.45027196407 0.54972803593
1.00000000000 0.45185488462 0.54814511538
0.00000000000 0.45058718324 0.54941284657
0.00000000000 0.45119887590 0.54880112410
0.00000000000 0.45126196742 0.54873806238
0.00000000000 0.45026782155 0.54973220825
0.00000000000 0.45033994317 0.54966002703
0.00000000000 0.45021146536 0.54978859425
0.00000000000 0.44988229871 0.55011767149
0.00000000000 0.45055082440 0.54944914579
0.00000000000 0.45052513480 0.54947489500
0.00000000000 0.45258033276 0.54741960764
0.00000000000 0.45066756010 0.54933249950
0.00000000000 0.45151728392 0.54848271608
0.00000000000 0.45091632009 0.54908365011
0.00000000000 0.45165288448 0.54834711552
0.00000000000 0.45117747784 0.54882258177
0.00000000000 0.45107117295 0.54892879725
0.00000000000 0.45185139775 0.54814857244
0.00000000000 0.44987902045 0.55012100935
0.00000000000 0.45186513662 0.54813486338
0.00000000000 0.45130333304 0.54869669676
0.00000000000 0.45019993186 0.54980003834
0.00000000000 0.45109480619 0.54890519381
0.00000000000 0.44983878732 0.55016124249
0.00000000000 0.44970878959 0.55029118061
0.00000000000 0.45099753141 0.54900246859
0.00000000000 0.45113646984 0.54886353016
0.00000000000 0.45208343863 0.54791653156
0.00000000000 0.45178234577 0.54821765423
0.00000000000 0.45194122195 0.54805874825
0.00000000000 0.45115670562 0.54884332418
0.00000000000 0.45163753629 0.54836249352
0.00000000000 0.44990530610 0.55009466410
0.00000000000 0.45017975569 0.54982024431
0.00000000000 0.45253106952 0.54746890068
1.00000000000 0.45173975825 0.54826021194
0.00000000000 0.45063212514 0.54936790466
0.00000000000 0.45157319307 0.54842680693
0.00000000000 0.45143502951 0.54856497049
0.00000000000 0.45253682137 0.54746323824
0.00000000000 0.45058923960 0.54941076040
0.00000000000 0.45191720128 0.54808282852
1.00000000000 0.45049518347 0.54950481653
1.00000000000 0.45239841938 0.54760158062
1.00000000000 0.45297259092 0.54702746868
0.00000000000 0.44989129901 0.55010867119
0.00000000000 0.45186308026 0.54813694954
0.00000000000 0.45144325495 0.54855674505
0.00000000000 0.45015561581 0.54984432459
0.00000000000 0.45017015934 0.54982984066
0.00000000000 0.45191186666 0.54808813334
1.00000000000 0.44963780046 0.55036222935
0.00000000000 0.45238506794 0.54761493206
0.00000000000 0.45000636578 0.54999363422
0.00000000000 0.44977191091 0.55022811890
0.00000000000 0.45020633936 0.54979366064
0.00000000000 0.45076638460 0.54923361540
0.00000000000 0.45151248574 0.54848748446
0.00000000000 0.45181608200 0.54818385839
0.00000000000 0.45010581613 0.54989415407
1.00000000000 0.45148465037 0.54851531982
0.00000000000 0.44977739453 0.55022257566
1.00000000000 0.45122233033 0.54877769947
1.00000000000 0.45101943612 0.54898053408
0.00000000000 0.45121368766 0.54878628254
0.00000000000 0.45062965155 0.54937034845
0.00000000000 0.44983965158 0.55016034842
1.00000000000 0.44993841648 0.55006152391
0.00000000000 0.45141673088 0.54858326912
0.00000000000 0.45208007097 0.54791992903
0.00000000000 0.45124667883 0.54875332117
0.00000000000 0.45103645325 0.54896354675
0.00000000000 0.44989445806 0.55010557175
0.00000000000 0.45137608051 0.54862391949
0.00000000000 0.45098990202 0.54901015759
0.00000000000 0.45143318176 0.54856681824
0.00000000000 0.45176839828 0.54823160172
0.00000000000 0.45089700818 0.54910302162
0.00000000000 0.45195168257 0.54804837704
0.00000000000 0.45179864764 0.54820138216
0.00000000000 0.45097202063 0.54902803898
0.00000000000 0.45030373335 0.54969626665
0.00000000000 0.45182159543 0.54817837477
0.00000000000 0.45047661662 0.54952341318
1.00000000000 0.45101147890 0.54898852110
0.00000000000 0.45143750310 0.54856252670
1.00000000000 0.45197767019 0.54802238941
0.00000000000 0.45071288943 0.54928708076
0.00000000000 0.45079162717 0.54920834303
0.00000000000 0.45176377892 0.54823619127
0.00000000000 0.44994392991 0.55005604029
0.00000000000 0.44980409741 0.55019587278
0.00000000000 0.45178452134 0.54821550846
0.00000000000 0.45012602210 0.54987400770
0.00000000000 0.45175552368 0.54824441671
0.00000000000 0.45174789429 0.54825210571
0.00000000000 0.45206099749 0.54793900251
0.00000000000 0.44996744394 0.55003255606
0.00000000000 0.45167613029 0.54832386971
1.00000000000 0.45241615176 0.54758387804
0.00000000000 0.45154348016 0.54845654964
0.00000000000 0.45018398762 0.54981601238
0.00000000000 0.45071136951 0.54928863049
0.00000000000 0.45081731677 0.54918271303
0.00000000000 0.45187681913 0.54812312126
0.00000000000 0.45139238238 0.54860764742
0.00000000000 0.45016294718 0.54983705282
0.00000000000 0.45167139173 0.54832863808
0.00000000000 0.44999358058 0.55000644922
0.00000000000 0.45121625066 0.54878371954
1.00000000000 0.45226120949 0.54773873091
0.00000000000 0.45250561833 0.54749435186
0.00000000000 0.44970914721 0.55029088259
0.00000000000 0.45087066293 0.54912936687
0.00000000000 0.45017126203 0.54982876778
0.00000000000 0.45185706019 0.54814296961
1.00000000000 0.45232453942 0.54767543077
1.00000000000 0.45169761777 0.54830241203
1.00000000000 0.45070686936 0.54929310083
0.00000000000 0.45203888416 0.54796117544
0.00000000000 0.44963809848 0.55036187172
0.00000000000 0.45028173923 0.54971826077
0.00000000000 0.44977238774 0.55022764206
0.00000000000 0.45144146681 0.54855853319
0.00000000000 0.45076796412 0.54923200607
0.00000000000 0.45191586018 0.54808419943
0.00000000000 0.44961223006 0.55038774014
0.00000000000 0.45086160302 0.54913842678
0.00000000000 0.45206004381 0.54793995619
0.00000000000 0.45167547464 0.54832458496
0.00000000000 0.45071816444 0.54928183556
0.00000000000 0.45015591383 0.54984408617
0.00000000000 0.45174637437 0.54825365543
0.00000000000 0.45191100240 0.54808902740
1.00000000000 0.45283004642 0.54716998339
1.00000000000 0.45098388195 0.54901611805
0.00000000000 0.44997704029 0.55002295971
1.00000000000 0.45119565725 0.54880434275
0.00000000000 0.44982478023 0.55017518997
0.00000000000 0.45293387771 0.54706615210
0.00000000000 0.45093551278 0.54906451702
1.00000000000 0.45147454739 0.54852545261
1.00000000000 0.45013785362 0.54986214638
0.00000000000 0.45098081231 0.54901915789
0.00000000000 0.45156183839 0.54843819141
0.00000000000 0.45195746422 0.54804253578
0.00000000000 0.45155546069 0.54844450951
0.00000000000 0.45003914833 0.54996085167
0.00000000000 0.45052126050 0.54947870970
0.00000000000 0.44995355606 0.55004638433
1.00000000000 0.45146802068 0.54853200912
0.00000000000 0.45074975491 0.54925024509
0.00000000000 0.44975516200 0.55024480820
0.00000000000 0.45139476657 0.54860526323
1.00000000000 0.45156699419 0.54843300581
1.00000000000 0.45172464848 0.54827541113
0.00000000000 0.45026302338 0.54973697662
0.00000000000 0.45131269097 0.54868727922
0.00000000000 0.45095333457 0.54904663563
1.00000000000 0.45168745518 0.54831254482
1.00000000000 0.45200917125 0.54799085855
0.00000000000 0.45036953688 0.54963052273
0.00000000000 0.45092988014 0.54907011986
0.00000000000 0.45243138075 0.54756861925
0.00000000000 0.45016771555 0.54983234406
0.00000000000 0.45088234544 0.54911768436
0.00000000000 0.45109179616 0.54890823364
0.00000000000 0.44992035627 0.55007964373
0.00000000000 0.45118603110 0.54881399870
1.00000000000 0.45045039058 0.54954963923
1.00000000000 0.45129126310 0.54870867729
0.00000000000 0.45042282343 0.54957723618
0.00000000000 0.45000535250 0.54999470711
0.00000000000 0.45035672188 0.54964327812
0.00000000000 0.45159360766 0.54840636253
0.00000000000 0.45084175467 0.54915821552
1.00000000000 0.45073732734 0.54926264286
0.00000000000 0.45204937458 0.54795062542
0.00000000000 0.44990739226 0.55009257793
0.00000000000 0.45071426034 0.54928576946
0.00000000000 0.45128613710 0.54871386290
0.00000000000 0.44979378581 0.55020624399
0.00000000000 0.44975361228 0.55024641752
0.00000000000 0.45168375969 0.54831624031
1.00000000000 0.45257362723 0.54742640257
0.00000000000 0.45106124878 0.54893881083
0.00000000000 0.44996684790 0.55003315210
0.00000000000 0.45209357142 0.54790645838
0.00000000000 0.45099106431 0.54900896549
1.00000000000 0.45198568702 0.54801434278
0.00000000000 0.45058515668 0.54941481352
1.00000000000 0.45104023814 0.54895973206
1.00000000000 0.45166459680 0.54833537340
0.00000000000 0.45149183273 0.54850810766
0.00000000000 0.45199757814 0.54800242186
1.00000000000 0.45177465677 0.54822534323
0.00000000000 0.45180714130 0.54819285870
0.00000000000 0.45014017820 0.54985976219
1.00000000000 0.45055213571 0.54944789410
0.00000000000 0.45261749625 0.54738253355
0.00000000000 0.45108813047 0.54891186953
0.00000000000 0.44961380959 0.55038619041
0.00000000000 0.45032697916 0.54967302084
0.00000000000 0.45152854919 0.54847145081
0.00000000000 0.45130774379 0.54869222641
0.00000000000 0.44998529553 0.55001473427
0.00000000000 0.45009931922 0.54990065098
1.00000000000 0.45087921619 0.54912078381
0.00000000000 0.44981467724 0.55018532276
0.00000000000 0.45138967037 0.54861027002
0.00000000000 0.45171087980 0.54828912020
0.00000000000 0.45033496618 0.54966509342
0.00000000000 0.45098704100 0.54901295900
0.00000000000 0.45199900866 0.54800099134
0.00000000000 0.45116424561 0.54883575439
0.00000000000 0.45056754351 0.54943245649
0.00000000000 0.45110356808 0.54889649153
1.00000000000 0.45006397367 0.54993599653
0.00000000000 0.45105463266 0.54894536734
0.00000000000 0.45067518950 0.54932481050
1.00000000000 0.45164480805 0.54835516214
0.00000000000 0.45198526978 0.54801470041
1.00000000000 0.45222014189 0.54777979851
0.00000000000 0.45118340850 0.54881662130
0.00000000000 0.45187339187 0.54812663794
0.00000000000 0.44974574447 0.55025428534
0.00000000000 0.45130401850 0.54869598150
0.00000000000 0.45058462024 0.54941534996
0.00000000000 0.45013058186 0.54986941814
0.00000000000 0.45212900639 0.54787099361
0.00000000000 0.45181113482 0.54818892479
1.00000000000 0.45119965076 0.54880034924
1.00000000000 0.45237928629 0.54762071371
0.00000000000 0.44975429773 0.55024570227
0.00000000000 0.45205369592 0.54794627428
0.00000000000 0.45301145315 0.54698854685
0.00000000000 0.45000886917 0.54999113083
1.00000000000 0.45048099756 0.54951894283
0.00000000000 0.45055133104 0.54944866896
1.00000000000 0.45161393285 0.54838609695
0.00000000000 0.45135533810 0.54864466190
0.00000000000 0.45127999783 0.54872006178
0.00000000000 0.44969514012 0.55030488968
0.00000000000 0.45144915581 0.54855078459
0.00000000000 0.44992977381 0.55007022619
0.00000000000 0.45304265618 0.54695731401
0.00000000000 0.45080593228 0.54919409752
0.00000000000 0.44986966252 0.55013036728
0.00000000000 0.44987994432 0.55012005568
0.00000000000 0.45093965530 0.54906034470
0.00000000000 0.45302915573 0.54697084427
0.00000000000 0.45075011253 0.54924988747
0.00000000000 0.45098876953 0.54901123047
0.00000000000 0.45140704513 0.54859298468
0.00000000000 0.45096486807 0.54903513193
0.00000000000 0.45100218058 0.54899781942
0.00000000000 0.45215684175 0.54784315825
0.00000000000 0.45152479410 0.54847520590
0.00000000000 0.45252874494 0.54747122526
1.00000000000 0.45194604993 0.54805392027
0.00000000000 0.45199444890 0.54800552130
0.00000000000 0.45136448741 0.54863548279
1.00000000000 0.45184165239 0.54815840721
0.00000000000 0.45080220699 0.54919773340
0.00000000000 0.45206272602 0.54793727398
0.00000000000 0.45018038154 0.54981964827
0.00000000000 0.45055073500 0.54944926500
0.00000000000 0.45201498270 0.54798501730
0.00000000000 0.45017904043 0.54982095957
0.00000000000 0.45017874241 0.54982131720
0.00000000000 0.45174199343 0.54825800657
0.00000000000 0.45061534643 0.54938465357
0.00000000000 0.44974043965 0.55025959015
0.00000000000 0.45052269101 0.54947727919
0.00000000000 0.45134890079 0.54865103960
0.00000000000 0.44982030988 0.55017966032
0.00000000000 0.45284599066 0.54715394974
0.00000000000 0.45033279061 0.54966717958
0.00000000000 0.45245429873 0.54754567146
0.00000000000 0.44996684790 0.55003321171
0.00000000000 0.45200645924 0.54799354076
0.00000000000 0.45013839006 0.54986160994
1.00000000000 0.45163583755 0.54836416245
0.00000000000 0.45104575157 0.54895424843
1.00000000000 0.45167404413 0.54832595587
0.00000000000 0.44998857379 0.55001139641
0.00000000000 0.45140004158 0.54859995842
0.00000000000 0.45031005144 0.54968994856
0.00000000000 0.45124155283 0.54875844717
0.00000000000 0.45190778375 0.54809224606
0.00000000000 0.45164120197 0.54835873842
0.00000000000 0.45049482584 0.54950511456
0.00000000000 0.45077127218 0.54922872782
0.00000000000 0.45082235336 0.54917764664
1.00000000000 0.45178124309 0.54821878672
0.00000000000 0.45075637102 0.54924362898
0.00000000000 0.45077404380 0.54922592640
0.00000000000 0.45200413465 0.54799586535
0.00000000000 0.45122891665 0.54877108335
0.00000000000 0.45125368237 0.54874628782
0.00000000000 0.45076858997 0.54923141003
0.00000000000 0.45291396976 0.54708606005
0.00000000000 0.45168557763 0.54831439257
0.00000000000 0.44961282611 0.55038714409
1.00000000000 0.45260024071 0.54739975929
1.00000000000 0.45168855786 0.54831147194
0.00000000000 0.44988498092 0.55011498928
0.00000000000 0.44994094968 0.55005908012
0.00000000000 0.45078462362 0.54921537638
0.00000000000 0.44976562262 0.55023437738
1.00000000000 0.45175108314 0.54824888706
0.00000000000 0.45123994350 0.54876005650
0.00000000000 0.44969096780 0.55030900240
0.00000000000 0.45135322213 0.54864680767
0.00000000000 0.45141130686 0.54858869314
0.00000000000 0.45015648007 0.54984354973
0.00000000000 0.45090317726 0.54909682274
0.00000000000 0.45038896799 0.54961103201
0.00000000000 0.45148450136 0.54851549864
0.00000000000 0.45090150833 0.54909849167
0.00000000000 0.45122832060 0.54877167940
0.00000000000 0.45004242659 0.54995763302
0.00000000000 0.45043605566 0.54956394434
0.00000000000 0.45047783852 0.54952210188
0.00000000000 0.45132356882 0.54867643118
0.00000000000 0.45107260346 0.54892742634
1.00000000000 0.45187768340 0.54812228680
0.00000000000 0.45029065013 0.54970932007
0.00000000000 0.45186129212 0.54813873768
0.00000000000 0.45066878200 0.54933118820
0.00000000000 0.45178025961 0.54821974039
0.00000000000 0.44995793700 0.55004209280
0.00000000000 0.44984483719 0.55015510321
1.00000000000 0.45113897324 0.54886108637
0.00000000000 0.45156392455 0.54843610525
0.00000000000 0.45087379217 0.54912620783
0.00000000000 0.45073446631 0.54926550388
0.00000000000 0.45109435916 0.54890567064
1.00000000000 0.45155644417 0.54844355583
0.00000000000 0.45126211643 0.54873788357
0.00000000000 0.45091083646 0.54908913374
0.00000000000 0.45132228732 0.54867774248
1.00000000000 0.45160764456 0.54839229584
1.00000000000 0.45169144869 0.54830855131
0.00000000000 0.45057797432 0.54942208529
0.00000000000 0.45114436746 0.54885566235
0.00000000000 0.45112305880 0.54887694120
0.00000000000 0.44970706105 0.55029296875
0.00000000000 0.45148631930 0.54851365089
0.00000000000 0.45064732432 0.54935264587
0.00000000000 0.44993039966 0.55006963015
0.00000000000 0.45138046145 0.54861956835
0.00000000000 0.45002886653 0.54997110367
0.00000000000 0.45197817683 0.54802185297
0.00000000000 0.45196163654 0.54803836346
0.00000000000 0.45113331079 0.54886668921
0.00000000000 0.45047941804 0.54952061176
0.00000000000 0.45142993331 0.54857003689
1.00000000000 0.45209178329 0.54790818691
0.00000000000 0.45217123628 0.54782873392
0.00000000000 0.45022293925 0.54977703094
1.00000000000 0.45206502080 0.54793494940
0.00000000000 0.45053344965 0.54946655035
0.00000000000 0.45177367330 0.54822635651
0.00000000000 0.45222333074 0.54777663946
0.00000000000 0.45228463411 0.54771536589
0.00000000000 0.45225542784 0.54774457216
1.00000000000 0.45124712586 0.54875290394
0.00000000000 0.45101273060 0.54898726940
0.00000000000 0.45150122046 0.54849880934
0.00000000000 0.45105201006 0.54894798994
0.00000000000 0.45004370809 0.54995626211
0.00000000000 0.45082274079 0.54917728901
0.00000000000 0.45022490621 0.54977506399
0.00000000000 0.45245119929 0.54754877090
0.00000000000 0.45135959983 0.54864037037
0.00000000000 0.44991490245 0.55008506775
0.00000000000 0.45228058100 0.54771941900
0.00000000000 0.45219653845 0.54780346155
0.00000000000 0.44994664192 0.55005341768
1.00000000000 0.45031905174 0.54968100786
0.00000000000 0.45217418671 0.54782581329
0.00000000000 0.45167300105 0.54832696915
0.00000000000 0.45035311580 0.54964691401
0.00000000000 0.44998437166 0.55001562834
0.00000000000 0.45170438290 0.54829561710
1.00000000000 0.45214292407 0.54785710573
0.00000000000 0.44983470440 0.55016529560
0.00000000000 0.44958600402 0.55041396618
0.00000000000 0.44994008541 0.55005997419
0.00000000000 0.44961094856 0.55038905144
0.00000000000 0.45122599602 0.54877400398
0.00000000000 0.45072680712 0.54927319288
0.00000000000 0.45196884871 0.54803115129
0.00000000000 0.44995695353 0.55004298687
1.00000000000 0.45071855187 0.54928141832
0.00000000000 0.44977998734 0.55022001266
0.00000000000 0.45144268870 0.54855728149
0.00000000000 0.45147734880 0.54852265120
0.00000000000 0.45064437389 0.54935562611
1.00000000000 0.45158129930 0.54841870070
0.00000000000 0.45185515285 0.54814481735
1.00000000000 0.45104515553 0.54895490408
0.00000000000 0.44955649972 0.55044347048
0.00000000000 0.45174768567 0.54825228453
0.00000000000 0.45204567909 0.54795432091
0.00000000000 0.45198920369 0.54801082611
0.00000000000 0.45085576177 0.54914420843
0.00000000000 0.45124989748 0.54875010252
0.00000000000 0.45098429918 0.54901564121
0.00000000000 0.45209842920 0.54790157080
0.00000000000 0.45204475522 0.54795527458
0.00000000000 0.45159626007 0.54840373993
0.00000000000 0.45228537917 0.54771465063
0.00000000000 0.45116978884 0.54883021116
1.00000000000 0.45010435581 0.54989558458
1.00000000000 0.45205757022 0.54794239998
0.00000000000 0.45189136267 0.54810863733
0.00000000000 0.45085102320 0.54914897680
0.00000000000 0.45248082280 0.54751914740
0.00000000000 0.45131665468 0.54868334532
0.00000000000 0.45174700022 0.54825299978
0.00000000000 0.44981172681 0.55018830299
0.00000000000 0.45227152109 0.54772847891
0.00000000000 0.45156130195 0.54843872786
0.00000000000 0.44977635145 0.55022358894
1.00000000000 0.45147237182 0.54852765799
0.00000000000 0.45187774301 0.54812228680
0.00000000000 0.44970381260 0.55029618740
0.00000000000 0.45294177532 0.54705822468
0.00000000000 0.45037651062 0.54962348938
0.00000000000 0.45105084777 0.54894918203
0.00000000000 0.45051822066 0.54948174953
0.00000000000 0.45026385784 0.54973608255
0.00000000000 0.45066568255 0.54933428764
0.00000000000 0.45035865903 0.54964131117
0.00000000000 0.44970154762 0.55029845238
0.00000000000 0.45029270649 0.54970729351
0.00000000000 0.45162278414 0.54837715626
1.00000000000 0.45227068663 0.54772931337
0.00000000000 0.45129162073 0.54870831966
0.00000000000 0.45205914974 0.54794090986
0.00000000000 0.45000809431 0.54999196529
0.00000000000 0.45011729002 0.54988270998
0.00000000000 0.45117819309 0.54882186651
0.00000000000 0.44991153479 0.55008846521
1.00000000000 0.45127883554 0.54872119427
0.00000000000 0.45174533129 0.54825466871
1.00000000000 0.45122772455 0.54877227545
0.00000000000 0.45252555609 0.54747444391
0.00000000000 0.45060005784 0.54939991236
0.00000000000 0.45149263740 0.54850733280
0.00000000000 0.44967696071 0.55032300949
0.00000000000 0.45133304596 0.54866695404
0.00000000000 0.45203909278 0.54796093702
0.00000000000 0.45123478770 0.54876524210
0.00000000000 0.45263493061 0.54736506939
0.00000000000 0.44985899329 0.55014103651
1.00000000000 0.45069250464 0.54930752516
0.00000000000 0.45006999373 0.54992997646
0.00000000000 0.45076397061 0.54923599958
0.00000000000 0.44976955652 0.55023038387
0.00000000000 0.45003196597 0.54996806383
1.00000000000 0.45182052255 0.54817944765
0.00000000000 0.44947504997 0.55052500963
0.00000000000 0.44976747036 0.55023258924
0.00000000000 0.45175224543 0.54824775457
0.00000000000 0.45016145706 0.54983854294
0.00000000000 0.45173346996 0.54826658964
1.00000000000 0.45078206062 0.54921793938
1.00000000000 0.45030778646 0.54969221354
1.00000000000 0.45181721449 0.54818278551
0.00000000000 0.45093351603 0.54906648397
0.00000000000 0.45164242387 0.54835760593
1.00000000000 0.45241340995 0.54758656025
1.00000000000 0.45168569684 0.54831433296
0.00000000000 0.45093947649 0.54906052351
0.00000000000 0.44992226362 0.55007779598
0.00000000000 0.45139920712 0.54860073328
0.00000000000 0.45204216242 0.54795783758
0.00000000000 0.45198562741 0.54801434278
1.00000000000 0.45231178403 0.54768818617
0.00000000000 0.45176905394 0.54823094606
0.00000000000 0.45125114918 0.54874885082
0.00000000000 0.45073315501 0.54926681519
0.00000000000 0.45179030299 0.54820966721
0.00000000000 0.44950661063 0.55049341917
0.00000000000 0.45209664106 0.54790329933
0.00000000000 0.45002773404 0.54997223616
1.00000000000 0.45261466503 0.54738533497
0.00000000000 0.44950503111 0.55049496889
0.00000000000 0.45217674971 0.54782325029
0.00000000000 0.45141071081 0.54858928919
0.00000000000 0.45032829046 0.54967170954
0.00000000000 0.45048210025 0.54951792955
1.00000000000 0.45066079497 0.54933923483
0.00000000000 0.45104551315 0.54895448685
0.00000000000 0.45144894719 0.54855108261
0.00000000000 0.45022642612 0.54977357388
0.00000000000 0.45167118311 0.54832881689
0.00000000000 0.45115742087 0.54884260893
0.00000000000 0.45089015365 0.54910981655
0.00000000000 0.45141601562 0.54858398438
1.00000000000 0.45038935542 0.54961067438
0.00000000000 0.45065632463 0.54934364557
0.00000000000 0.45102548599 0.54897451401
0.00000000000 0.44967678189 0.55032318830
0.00000000000 0.45263481140 0.54736518860
1.00000000000 0.44993373752 0.55006629229
0.00000000000 0.45059633255 0.54940366745
1.00000000000 0.45243838429 0.54756164551
0.00000000000 0.44970846176 0.55029153824
0.00000000000 0.45119544864 0.54880452156
0.00000000000 0.45115783811 0.54884219170
0.00000000000 0.45192468166 0.54807531834
0.00000000000 0.45299062133 0.54700940847
0.00000000000 0.45192575455 0.54807430506
0.00000000000 0.45046064258 0.54953932762
0.00000000000 0.45166677237 0.54833322763
0.00000000000 0.45014032722 0.54985964298
0.00000000000 0.45165106654 0.54834896326
0.00000000000 0.45022776723 0.54977226257
0.00000000000 0.45119586587 0.54880416393
0.00000000000 0.45120507479 0.54879492521
0.00000000000 0.45041048527 0.54958951473
1.00000000000 0.44993662834 0.55006337166
0.00000000000 0.45117905736 0.54882097244
0.00000000000 0.45150545239 0.54849457741
0.00000000000 0.45096483827 0.54903513193
0.00000000000 0.45031967759 0.54968035221
0.00000000000 0.45201411843 0.54798591137
0.00000000000 0.45189046860 0.54810953140
0.00000000000 0.45149585605 0.54850411415
0.00000000000 0.45046374202 0.54953622818
0.00000000000 0.45112699270 0.54887306690
0.00000000000 0.45042169094 0.54957830906
0.00000000000 0.45021176338 0.54978823662
0.00000000000 0.45035439730 0.54964560270
0.00000000000 0.45091846585 0.54908150434
0.00000000000 0.45289573073 0.54710429907
0.00000000000 0.45216435194 0.54783564806
0.00000000000 0.45084959269 0.54915034771
0.00000000000 0.45222157240 0.54777842760
0.00000000000 0.45029613376 0.54970383644
0.00000000000 0.45029282570 0.54970723391
0.00000000000 0.45035412908 0.54964584112
0.00000000000 0.45018163323 0.54981833696
0.00000000000 0.45026510954 0.54973489046
0.00000000000 0.45236626267 0.54763376713
0.00000000000 0.45184302330 0.54815697670
1.00000000000 0.45214730501 0.54785269499
0.00000000000 0.45122170448 0.54877835512
0.00000000000 0.45100176334 0.54899823666
0.00000000000 0.45019489527 0.54980510473
0.00000000000 0.45059186220 0.54940813780
1.00000000000 0.45146536827 0.54853463173
0.00000000000 0.44964236021 0.55035763979
0.00000000000 0.45109042525 0.54890954494
0.00000000000 0.45153021812 0.54846978188
0.00000000000 0.44982519746 0.55017477274
0.00000000000 0.45020064712 0.54979938269
0.00000000000 0.45107123256 0.54892879725
0.00000000000 0.45190119743 0.54809880257
0.00000000000 0.45169553161 0.54830449820
0.00000000000 0.45201823115 0.54798179865
0.00000000000 0.45160236955 0.54839760065
0.00000000000 0.45121029019 0.54878973961
0.00000000000 0.44965744019 0.55034255981
1.00000000000 0.44997048378 0.55002951622
0.00000000000 0.45112934709 0.54887062311
0.00000000000 0.44974777102 0.55025219917
1.00000000000 0.45213294029 0.54786711931
0.00000000000 0.45138153434 0.54861849546
0.00000000000 0.44990205765 0.55009788275
0.00000000000 0.45169219375 0.54830777645
0.00000000000 0.45040896535 0.54959100485
0.00000000000 0.45184436440 0.54815566540
0.00000000000 0.44985696673 0.55014306307
0.00000000000 0.44997334480 0.55002665520
0.00000000000 0.45155939460 0.54844063520
0.00000000000 0.45050534606 0.54949468374
1.00000000000 0.45212596655 0.54787403345
0.00000000000 0.45258998871 0.54741007090
0.00000000000 0.45100334287 0.54899662733
0.00000000000 0.44998708367 0.55001294613
0.00000000000 0.45007258654 0.54992741346
0.00000000000 0.44962167740 0.55037832260
0.00000000000 0.45131459832 0.54868537188
1.00000000000 0.45192188025 0.54807806015
0.00000000000 0.45068770647 0.54931229353
0.00000000000 0.44983762503 0.55016237497
0.00000000000 0.45060172677 0.54939830303
0.00000000000 0.45091918111 0.54908078909
0.00000000000 0.45074847341 0.54925149679
0.00000000000 0.45183879137 0.54816114902
0.00000000000 0.45079746842 0.54920256138
1.00000000000 0.45107242465 0.54892754555
0.00000000000 0.45168000460 0.54831999540
0.00000000000 0.44979244471 0.55020749569
0.00000000000 0.45235282183 0.54764711857
0.00000000000 0.45117765665 0.54882234335
0.00000000000 0.45159351826 0.54840642214
0.00000000000 0.45159855485 0.54840141535
0.00000000000 0.44991245866 0.55008751154
0.00000000000 0.45267784595 0.54732215405
0.00000000000 0.45201799273 0.54798197746
0.00000000000 0.45236676931 0.54763323069
1.00000000000 0.45049977303 0.54950022697
1.00000000000 0.45213043690 0.54786956310
1.00000000000 0.45119190216 0.54880809784
0.00000000000 0.45177567005 0.54822438955
0.00000000000 0.45166522264 0.54833483696
0.00000000000 0.45024031401 0.54975968599
0.00000000000 0.45191356540 0.54808640480
0.00000000000 0.45073324442 0.54926675558
0.00000000000 0.45199042559 0.54800957441
0.00000000000 0.45196658373 0.54803341627
0.00000000000 0.45133471489 0.54866528511
0.00000000000 0.45078408718 0.54921597242
0.00000000000 0.45103934407 0.54896068573
0.00000000000 0.45018067956 0.54981935024
0.00000000000 0.44975772500 0.55024230480
0.00000000000 0.45124086738 0.54875910282
1.00000000000 0.45204848051 0.54795157909
0.00000000000 0.45022815466 0.54977184534
0.00000000000 0.45101520419 0.54898476601
0.00000000000 0.45195418596 0.54804581404
0.00000000000 0.45183765888 0.54816234112
0.00000000000 0.45142486691 0.54857516289
0.00000000000 0.45222222805 0.54777777195
0.00000000000 0.45156013966 0.54843986034
0.00000000000 0.45208647847 0.54791355133
0.00000000000 0.45224127173 0.54775869846
0.00000000000 0.45118555427 0.54881447554
0.00000000000 0.44972762465 0.55027234554
0.00000000000 0.45190975070 0.54809027910
0.00000000000 0.45083528757 0.54916471243
0.00000000000 0.45077782869 0.54922223091
0.00000000000 0.45118069649 0.54881930351
0.00000000000 0.45202434063 0.54797559977
1.00000000000 0.45251268148 0.54748731852
1.00000000000 0.45203781128 0.54796218872
0.00000000000 0.45070809126 0.54929190874
0.00000000000 0.45220744610 0.54779255390
0.00000000000 0.45023167133 0.54976832867
0.00000000000 0.45192059875 0.54807943106
0.00000000000 0.45199292898 0.54800707102
0.00000000000 0.45021665096 0.54978340864
0.00000000000 0.45076394081 0.54923605919
0.00000000000 0.45124205947 0.54875791073
0.00000000000 0.45214596391 0.54785406590
0.00000000000 0.45135882497 0.54864120483
0.00000000000 0.45052117109 0.54947876930
0.00000000000 0.45158198476 0.54841798544
0.00000000000 0.45058175921 0.54941827059
0.00000000000 0.45080336928 0.54919660091
0.00000000000 0.45019957423 0.54980045557
0.00000000000 0.45107388496 0.54892611504
0.00000000000 0.44974195957 0.55025804043
0.00000000000 0.45093175769 0.54906821251
0.00000000000 0.45187246799 0.54812753201
1.00000000000 0.45119169354 0.54880833626
1.00000000000 0.45207837224 0.54792165756
0.00000000000 0.45237883925 0.54762119055
0.00000000000 0.45187392831 0.54812604189
0.00000000000 0.45038443804 0.54961556196
0.00000000000 0.45158478618 0.54841524363
0.00000000000 0.44975224137 0.55024772882
1.00000000000 0.45156154037 0.54843848944
0.00000000000 0.45230332017 0.54769670963
0.00000000000 0.45185002685 0.54814994335
0.00000000000 0.45132070780 0.54867929220
0.00000000000 0.44961634278 0.55038368702
0.00000000000 0.45112842321 0.54887157679
0.00000000000 0.45020318031 0.54979687929
0.00000000000 0.45233848691 0.54766148329
0.00000000000 0.44996583462 0.55003410578
0.00000000000 0.44981858134 0.55018138885
0.00000000000 0.45093116164 0.54906886816
0.00000000000 0.45064929128 0.54935067892
0.00000000000 0.45245856047 0.54754143953
0.00000000000 0.45195454359 0.54804551601
0.00000000000 0.45050886273 0.54949110746
0.00000000000 0.44974407554 0.55025595427
1.00000000000 0.45196321607 0.54803681374
0.00000000000 0.45119225979 0.54880774021
1.00000000000 0.45193886757 0.54806113243
0.00000000000 0.45096668601 0.54903328419
0.00000000000 0.45078954101 0.54921048880
0.00000000000 0.45043838024 0.54956156015
0.00000000000 0.45154505968 0.54845494032
0.00000000000 0.45152032375 0.54847967625
0.00000000000 0.45136311650 0.54863685369
0.00000000000 0.44962847233 0.55037152767
0.00000000000 0.45131754875 0.54868239164
0.00000000000 0.45213586092 0.54786413908
0.00000000000 0.45186799765 0.54813200235
0.00000000000 0.45061549544 0.54938447475
0.00000000000 0.45135462284 0.54864537716
0.00000000000 0.44965746999 0.55034250021
0.00000000000 0.45132300258 0.54867696762
0.00000000000 0.45071452856 0.54928547144
0.00000000000 0.45220005512 0.54779994488
0.00000000000 0.45129665732 0.54870337248
0.00000000000 0.45084735751 0.54915267229
1.00000000000 0.45182597637 0.54817408323
0.00000000000 0.44994288683 0.55005705357
0.00000000000 0.45042008162 0.54957985878
0.00000000000 0.45056647062 0.54943352938
0.00000000000 0.45187225938 0.54812771082
1.00000000000 0.45179307461 0.54820686579
0.00000000000 0.45237162709 0.54762834311
1.00000000000 0.45273825526 0.54726177454
0.00000000000 0.45046660304 0.54953342676
0.00000000000 0.45078912377 0.54921090603
0.00000000000 0.45039573312 0.54960429668
1.00000000000 0.45192050934 0.54807949066
0.00000000000 0.45017662644 0.54982340336
0.00000000000 0.45189574361 0.54810428619
0.00000000000 0.45048618317 0.54951381683
0.00000000000 0.45100083947 0.54899913073
0.00000000000 0.45244869590 0.54755133390
0.00000000000 0.45069769025 0.54930233955
0.00000000000 0.44960278273 0.55039727688
0.00000000000 0.44972425699 0.55027574301
1.00000000000 0.45151829720 0.54848170280
0.00000000000 0.45188248158 0.54811751842
0.00000000000 0.44973295927 0.55026710033
0.00000000000 0.45112970471 0.54887026548
1.00000000000 0.45220345259 0.54779654741
0.00000000000 0.45224574208 0.54775428772
0.00000000000 0.45181402564 0.54818594456
0.00000000000 0.45045831800 0.54954165220
0.00000000000 0.44978320599 0.55021685362
0.00000000000 0.44981670380 0.55018329620
0.00000000000 0.45243275166 0.54756724834
0.00000000000 0.45137941837 0.54862058163
0.00000000000 0.45188099146 0.54811906815
0.00000000000 0.45138186216 0.54861813784
0.00000000000 0.45129328966 0.54870671034
0.00000000000 0.44958731532 0.55041265488
0.00000000000 0.45122063160 0.54877930880
0.00000000000 0.45103901625 0.54896098375
0.00000000000 0.45235174894 0.54764819145
0.00000000000 0.45105916262 0.54894083738
0.00000000000 0.45122781396 0.54877221584
0.00000000000 0.45181536674 0.54818463326
1.00000000000 0.45107015967 0.54892981052
0.00000000000 0.45000901818 0.54999101162
0.00000000000 0.45189875364 0.54810130596
0.00000000000 0.45152500272 0.54847496748
0.00000000000 0.44992876053 0.55007123947
0.00000000000 0.45218193531 0.54781806469
0.00000000000 0.45152166486 0.54847830534
0.00000000000 0.45031413436 0.54968589544
0.00000000000 0.45211848617 0.54788154364
0.00000000000 0.44971996546 0.55028009415
0.00000000000 0.45157176256 0.54842823744
0.00000000000 0.45168679953 0.54831314087
0.00000000000 0.45134320855 0.54865682125
0.00000000000 0.45200282335 0.54799717665
1.00000000000 0.45190519094 0.54809486866
0.00000000000 0.44995349646 0.55004650354
0.00000000000 0.45011106133 0.54988890886
0.00000000000 0.45108899474 0.54891103506
0.00000000000 0.45095378160 0.54904621840
0.00000000000 0.45015868545 0.54984134436
0.00000000000 0.45123505592 0.54876500368
0.00000000000 0.45216837525 0.54783159494
0.00000000000 0.45081177354 0.54918825626
0.00000000000 0.44998192787 0.55001807213
1.00000000000 0.45140060782 0.54859936237
0.00000000000 0.44968867302 0.55031132698
1.00000000000 0.45163586736 0.54836416245
0.00000000000 0.45065799356 0.54934203625
0.00000000000 0.45182430744 0.54817569256
0.00000000000 0.45072266459 0.54927736521
0.00000000000 0.44981360435 0.55018639565
0.00000000000 0.45131686330 0.54868316650
1.00000000000 0.45092841983 0.54907160997
0.00000000000 0.45099401474 0.54900598526
0.00000000000 0.45112681389 0.54887318611
0.00000000000 0.45216548443 0.54783451557
0.00000000000 0.45138776302 0.54861223698
0.00000000000 0.45202934742 0.54797065258
0.00000000000 0.45204532146 0.54795473814
0.00000000000 0.45106375217 0.54893624783
0.00000000000 0.45021766424 0.54978239536
0.00000000000 0.45037025213 0.54962980747
0.00000000000 0.45283803344 0.54716199636
0.00000000000 0.45051339269 0.54948663712
0.00000000000 0.45112892985 0.54887104034
0.00000000000 0.45079717040 0.54920285940
0.00000000000 0.45200729370 0.54799270630
1.00000000000 0.45147928596 0.54852068424
0.00000000000 0.45024138689 0.54975861311
0.00000000000 0.45266216993 0.54733783007
0.00000000000 0.45230430365 0.54769569635
1.00000000000 0.44999718666 0.55000281334
0.00000000000 0.44983807206 0.55016189814
0.00000000000 0.44970366359 0.55029630661
0.00000000000 0.45166188478 0.54833811522
0.00000000000 0.45095625520 0.54904377460
0.00000000000 0.45141747594 0.54858255386
0.00000000000 0.45206421614 0.54793578386
0.00000000000 0.45162284374 0.54837715626
0.00000000000 0.45244365931 0.54755634069
1.00000000000 0.45187115669 0.54812884331
0.00000000000 0.45004919171 0.54995077848
0.00000000000 0.45088624954 0.54911375046
0.00000000000 0.45153465867 0.54846531153
0.00000000000 0.45008555055 0.54991447926
0.00000000000 0.45200279355 0.54799717665
0.00000000000 0.45028790832 0.54971212149
0.00000000000 0.45092970133 0.54907029867
0.00000000000 0.45231688023 0.54768311977
0.00000000000 0.45262891054 0.54737102985
0.00000000000 0.45177811384 0.54822188616
0.00000000000 0.45109409094 0.54890596867
0.00000000000 0.45075732470 0.54924261570
0.00000000000 0.45232778788 0.54767221212
0.00000000000 0.45095506310 0.54904496670
0.00000000000 0.45102825761 0.54897177219
0.00000000000 0.45151838660 0.54848164320
1.00000000000 0.45205104351 0.54794895649
0.00000000000 0.45135012269 0.54864984751
0.00000000000 0.44967946410 0.55032050610
0.00000000000 0.45038107038 0.54961895943
0.00000000000 0.45112311840 0.54887688160
0.00000000000 0.45057347417 0.54942655563
0.00000000000 0.45123216510 0.54876786470
0.00000000000 0.45045179129 0.54954820871
1.00000000000 0.45217221975 0.54782783985
0.00000000000 0.45178040862 0.54821962118
0.00000000000 0.45080801845 0.54919201136
0.00000000000 0.44979164004 0.55020833015
1.00000000000 0.45135501027 0.54864501953
0.00000000000 0.45123788714 0.54876208305
0.00000000000 0.45139762759 0.54860240221
0.00000000000 0.45056602359 0.54943400621
0.00000000000 0.45204347372 0.54795652628
0.00000000000 0.45018970966 0.54981034994
0.00000000000 0.45158028603 0.54841971397
0.00000000000 0.45112821460 0.54887175560
0.00000000000 0.45075890422 0.54924112558
0.00000000000 0.45211458206 0.54788541794
0.00000000000 0.45123225451 0.54876768589
0.00000000000 0.45208984613 0.54791009426
0.00000000000 0.45126327872 0.54873675108
0.00000000000 0.45189827681 0.54810172319
0.00000000000 0.45165050030 0.54834949970
0.00000000000 0.45050224662 0.54949772358
0.00000000000 0.45149528980 0.54850471020
0.00000000000 0.45192790031 0.54807204008
0.00000000000 0.45176064968 0.54823935032
0.00000000000 0.45182070136 0.54817926884
0.00000000000 0.45144981146 0.54855018854
0.00000000000 0.44980123639 0.55019879341
0.00000000000 0.45160138607 0.54839861393
0.00000000000 0.45051485300 0.54948514700
0.00000000000 0.45085281134 0.54914718866
0.00000000000 0.45166736841 0.54833263159
0.00000000000 0.44987121224 0.55012875795
1.00000000000 0.45188778639 0.54811215401
0.00000000000 0.45158213377 0.54841780663
0.00000000000 0.45243811607 0.54756194353
0.00000000000 0.45166444778 0.54833555222
0.00000000000 0.45204424858 0.54795569181
0.00000000000 0.45149663091 0.54850339890
0.00000000000 0.44970321655 0.55029684305
1.00000000000 0.45164328814 0.54835665226
0.00000000000 0.45179465413 0.54820531607
0.00000000000 0.45194607973 0.54805392027
0.00000000000 0.44991692901 0.55008310080
0.00000000000 0.45061317086 0.54938679934
0.00000000000 0.45064970851 0.54935026169
0.00000000000 0.45181685686 0.54818308353
0.00000000000 0.45023295283 0.54976701736
0.00000000000 0.45159280300 0.54840713739
0.00000000000 0.45050859451 0.54949140549
0.00000000000 0.45218089223 0.54781907797
0.00000000000 0.44988900423 0.55011093616
0.00000000000 0.45046672225 0.54953330755
1.00000000000 0.45135429502 0.54864573479
0.00000000000 0.45115107298 0.54884892702
0.00000000000 0.45117282867 0.54882717133
0.00000000000 0.44997775555 0.55002224445
1.00000000000 0.45179823041 0.54820179939
1.00000000000 0.45286536217 0.54713463783
1.00000000000 0.45144307613 0.54855692387
0.00000000000 0.45168113708 0.54831892252
0.00000000000 0.44964036345 0.55035966635
0.00000000000 0.45201298594 0.54798698425
0.00000000000 0.45079430938 0.54920566082
0.00000000000 0.45141696930 0.54858303070
0.00000000000 0.45044744015 0.54955255985
0.00000000000 0.45140916109 0.54859083891
0.00000000000 0.45252388716 0.54747611284
0.00000000000 0.45137754083 0.54862242937
0.00000000000 0.45061340928 0.54938656092
0.00000000000 0.45210745931 0.54789257050
0.00000000000 0.45066675544 0.54933321476
0.00000000000 0.45132392645 0.54867607355
0.00000000000 0.45078372955 0.54921621084
0.00000000000 0.45041230321 0.54958772659
0.00000000000 0.45023760200 0.54976242781
0.00000000000 0.45136705041 0.54863291979
0.00000000000 0.45107823610 0.54892176390
0.00000000000 0.44994094968 0.55005908012
1.00000000000 0.45196452737 0.54803550243
1.00000000000 0.45101830363 0.54898166656
1.00000000000 0.45065441728 0.54934555292
1.00000000000 0.45226699114 0.54773300886
1.00000000000 0.45162630081 0.54837375879
1.00000000000 0.45140567422 0.54859435558
0.00000000000 0.45137789845 0.54862207174
0.00000000000 0.45125323534 0.54874676466
0.00000000000 0.45135515928 0.54864484072
1.00000000000 0.45039135218 0.54960858822
0.00000000000 0.45165058970 0.54834938049
0.00000000000 0.45105534792 0.54894465208
0.00000000000 0.45163664222 0.54836332798
0.00000000000 0.45182380080 0.54817622900
0.00000000000 0.45157682896 0.54842317104
0.00000000000 0.45168173313 0.54831826687
0.00000000000 0.45176842809 0.54823154211
0.00000000000 0.45284512639 0.54715484381
0.00000000000 0.45135521889 0.54864472151
0.00000000000 0.45179003477 0.54820996523
0.00000000000 0.44988095760 0.55011904240
1.00000000000 0.45007199049 0.54992800951
0.00000000000 0.45201218128 0.54798781872
0.00000000000 0.45061978698 0.54938024282
0.00000000000 0.44987756014 0.55012243986
0.00000000000 0.45101189613 0.54898816347
0.00000000000 0.45041686296 0.54958319664
0.00000000000 0.45101490617 0.54898506403
0.00000000000 0.44995045662 0.55004954338
0.00000000000 0.44980391860 0.55019605160
0.00000000000 0.45297065377 0.54702937603
0.00000000000 0.45127964020 0.54872041941
0.00000000000 0.45165294409 0.54834705591
0.00000000000 0.44978061318 0.55021941662
1.00000000000 0.45183274150 0.54816728830
0.00000000000 0.45230144262 0.54769855738
0.00000000000 0.45200446248 0.54799550772
0.00000000000 0.44973957539 0.55026042461
0.00000000000 0.45060834289 0.54939162731
0.00000000000 0.45108884573 0.54891115427
0.00000000000 0.45097902417 0.54902100563
0.00000000000 0.45163524151 0.54836475849
0.00000000000 0.45101225376 0.54898774624
0.00000000000 0.45147582889 0.54852414131
0.00000000000 0.45032900572 0.54967099428
0.00000000000 0.45113372803 0.54886621237
0.00000000000 0.45133024454 0.54866969585
0.00000000000 0.44965708256 0.55034291744
1.00000000000 0.45183223486 0.54816776514
0.00000000000 0.45197179914 0.54802817106
1.00000000000 0.45217418671 0.54782581329
0.00000000000 0.45042526722 0.54957473278
0.00000000000 0.44994774461 0.55005222559
0.00000000000 0.45190191269 0.54809808731
0.00000000000 0.45189681649 0.54810315371
1.00000000000 0.45165050030 0.54834949970
0.00000000000 0.45034357905 0.54965645075
1.00000000000 0.45153725147 0.54846274853
0.00000000000 0.45079147816 0.54920852184
0.00000000000 0.45106816292 0.54893183708
0.00000000000 0.45153495669 0.54846501350
0.00000000000 0.45210438967 0.54789561033
0.00000000000 0.45051199198 0.54948800802
0.00000000000 0.45232307911 0.54767698050
1.00000000000 0.45184734464 0.54815262556
0.00000000000 0.45086538792 0.54913461208
0.00000000000 0.44972878695 0.55027121305
0.00000000000 0.45177537203 0.54822456837
0.00000000000 0.44975513220 0.55024492741
0.00000000000 0.44971808791 0.55028188229
0.00000000000 0.45066839457 0.54933160543
0.00000000000 0.45124828815 0.54875171185
0.00000000000 0.45069417357 0.54930585623
1.00000000000 0.45146453381 0.54853546619
1.00000000000 0.45201590657 0.54798412323
0.00000000000 0.45203778148 0.54796224833
0.00000000000 0.45134869218 0.54865127802
1.00000000000 0.45152717829 0.54847282171
0.00000000000 0.45119994879 0.54880005121
0.00000000000 0.45061969757 0.54938030243
0.00000000000 0.45059305429 0.54940694571
0.00000000000 0.45163002610 0.54836994410
0.00000000000 0.45080754161 0.54919242859
0.00000000000 0.45127153397 0.54872852564
0.00000000000 0.45005282760 0.54994714260
0.00000000000 0.45138779283 0.54861217737
0.00000000000 0.45174196362 0.54825806618
1.00000000000 0.45176225901 0.54823768139
1.00000000000 0.45079824328 0.54920172691
0.00000000000 0.45017731190 0.54982262850
0.00000000000 0.44971182942 0.55028814077
1.00000000000 0.45083799958 0.54916203022
1.00000000000 0.45334324241 0.54665678740
0.00000000000 0.45112109184 0.54887896776
0.00000000000 0.45076051354 0.54923945665
0.00000000000 0.45033690333 0.54966306686
0.00000000000 0.44968461990 0.55031538010
0.00000000000 0.45121720433 0.54878276587
0.00000000000 0.45055523515 0.54944479465
0.00000000000 0.45144301653 0.54855698347
0.00000000000 0.45124769211 0.54875224829
0.00000000000 0.45134812593 0.54865187407
0.00000000000 0.45022970438 0.54977023602
0.00000000000 0.45206093788 0.54793912172
0.00000000000 0.45007202029 0.54992794991
0.00000000000 0.45148479939 0.54851520061
0.00000000000 0.45090225339 0.54909771681
0.00000000000 0.45120900869 0.54879099131
0.00000000000 0.45221671462 0.54778325558
0.00000000000 0.45128732920 0.54871273041
1.00000000000 0.45130062103 0.54869937897
0.00000000000 0.45164245367 0.54835754633
1.00000000000 0.45177140832 0.54822862148
0.00000000000 0.45031535625 0.54968464375
0.00000000000 0.45208704472 0.54791295528
0.00000000000 0.45061084628 0.54938918352
0.00000000000 0.45062869787 0.54937124252
1.00000000000 0.45154917240 0.54845082760
1.00000000000 0.45070201159 0.54929798841
0.00000000000 0.45183455944 0.54816550016
0.00000000000 0.45110097528 0.54889905453
0.00000000000 0.45160338283 0.54839658737
0.00000000000 0.45061531663 0.54938465357
0.00000000000 0.45184093714 0.54815906286
0.00000000000 0.45084807277 0.54915189743
0.00000000000 0.45128217340 0.54871779680
0.00000000000 0.45066154003 0.54933845997
0.00000000000 0.45035284758 0.54964715242
0.00000000000 0.44979381561 0.55020624399
0.00000000000 0.45110285282 0.54889708757
0.00000000000 0.44981989264 0.55018007755
0.00000000000 0.45005282760 0.54994714260
0.00000000000 0.45007458329 0.54992544651
0.00000000000 0.45195794106 0.54804205894
0.00000000000 0.45164433122 0.54835569859
1.00000000000 0.45166710019 0.54833292961
0.00000000000 0.44996684790 0.55003315210
0.00000000000 0.45262369514 0.54737627506
0.00000000000 0.45275387168 0.54724615812
0.00000000000 0.45132091641 0.54867911339
0.00000000000 0.45081645250 0.54918354750
0.00000000000 0.45196166635 0.54803836346
0.00000000000 0.45142275095 0.54857730865
0.00000000000 0.45116898417 0.54883098602
0.00000000000 0.44994214177 0.55005788803
0.00000000000 0.45219236612 0.54780763388
0.00000000000 0.45107463002 0.54892534018
1.00000000000 0.45066171885 0.54933828115
0.00000000000 0.45002382994 0.54997617006
0.00000000000 0.45191127062 0.54808872938
0.00000000000 0.45085799694 0.54914194345
0.00000000000 0.45215603709 0.54784393311
0.00000000000 0.45136433840 0.54863572121
0.00000000000 0.45166879892 0.54833114147
0.00000000000 0.45060944557 0.54939055443
0.00000000000 0.44979640841 0.55020356178
0.00000000000 0.44978147745 0.55021852255
0.00000000000 0.45094981790 0.54905015230
0.00000000000 0.45136260986 0.54863744974
0.00000000000 0.44974443316 0.55025553703
0.00000000000 0.45199483633 0.54800516367
0.00000000000 0.45228692889 0.54771310091
0.00000000000 0.45198926330 0.54801070690
0.00000000000 0.44982793927 0.55017203093
0.00000000000 0.45123067498 0.54876929522
0.00000000000 0.45087274909 0.54912728071
0.00000000000 0.45121920109 0.54878079891
0.00000000000 0.45073923469 0.54926073551
0.00000000000 0.45144972205 0.54855024815
1.00000000000 0.45221742988 0.54778259993
0.00000000000 0.45195952058 0.54804050922
0.00000000000 0.45155775547 0.54844230413
0.00000000000 0.45136934519 0.54863065481
0.00000000000 0.45141813159 0.54858189821
0.00000000000 0.45006868243 0.54993134737
0.00000000000 0.45192345977 0.54807657003
0.00000000000 0.45212891698 0.54787105322
0.00000000000 0.45179086924 0.54820913076
0.00000000000 0.45130750537 0.54869252443
1.00000000000 0.45296955109 0.54703044891
0.00000000000 0.45000261068 0.54999744892
0.00000000000 0.45146089792 0.54853910208
0.00000000000 0.45027801394 0.54972201586
0.00000000000 0.45205312967 0.54794692993
0.00000000000 0.45058244467 0.54941755533
0.00000000000 0.45200762153 0.54799234867
0.00000000000 0.44989848137 0.55010151863
0.00000000000 0.44985273480 0.55014723539
0.00000000000 0.45106106997 0.54893893003
0.00000000000 0.45061942935 0.54938060045
0.00000000000 0.45168393850 0.54831606150
0.00000000000 0.45187941194 0.54812061787
0.00000000000 0.45001327991 0.54998666048
0.00000000000 0.45173919201 0.54826080799
0.00000000000 0.45172470808 0.54827529192
0.00000000000 0.45120418072 0.54879587889
0.00000000000 0.44991406798 0.55008590221
0.00000000000 0.45101755857 0.54898244143
0.00000000000 0.45130750537 0.54869252443
0.00000000000 0.44977498055 0.55022495985
0.00000000000 0.45154020190 0.54845976830
0.00000000000 0.45171689987 0.54828304052
1.00000000000 0.45153483748 0.54846519232
0.00000000000 0.45190230012 0.54809772968
0.00000000000 0.45022183657 0.54977810383
0.00000000000 0.45091840625 0.54908162355
0.00000000000 0.45122823119 0.54877179861
0.00000000000 0.45053115487 0.54946887493
0.00000000000 0.45122209191 0.54877787828
0.00000000000 0.45129615068 0.54870390892
0.00000000000 0.44997894764 0.55002105236
0.00000000000 0.45164120197 0.54835879803
0.00000000000 0.45063221455 0.54936778545
0.00000000000 0.45167195797 0.54832804203
0.00000000000 0.45120948553 0.54879051447
0.00000000000 0.45218065381 0.54781937599
0.00000000000 0.45020523667 0.54979479313
0.00000000000 0.44983553886 0.55016446114
0.00000000000 0.45184352994 0.54815644026
0.00000000000 0.45085582137 0.54914420843
0.00000000000 0.45203086734 0.54796910286
1.00000000000 0.45223540068 0.54776465893
0.00000000000 0.45044443011 0.54955554008
1.00000000000 0.45247751474 0.54752248526
0.00000000000 0.45035362244 0.54964631796
1.00000000000 0.45220577717 0.54779428244
1.00000000000 0.45187574625 0.54812425375
0.00000000000 0.45214557648 0.54785442352
0.00000000000 0.45069038868 0.54930961132
0.00000000000 0.45096489787 0.54903507233
0.00000000000 0.45087891817 0.54912108183
1.00000000000 0.45136010647 0.54863989353
0.00000000000 0.44973742962 0.55026257038
0.00000000000 0.45158848166 0.54841154814
1.00000000000 0.45039394498 0.54960602522
0.00000000000 0.45171990991 0.54828006029
0.00000000000 0.45156103373 0.54843896627
0.00000000000 0.45163792372 0.54836207628
0.00000000000 0.45206946135 0.54793053865
1.00000000000 0.45014250278 0.54985749722
0.00000000000 0.44995841384 0.55004161596
0.00000000000 0.44972854853 0.55027145147
0.00000000000 0.45051503181 0.54948496819
1.00000000000 0.45229750872 0.54770249128
1.00000000000 0.45162880421 0.54837119579
0.00000000000 0.45187321305 0.54812681675
0.00000000000 0.45261910558 0.54738092422
0.00000000000 0.44982975721 0.55017030239
0.00000000000 0.44978660345 0.55021333694
0.00000000000 0.45019394159 0.54980605841
0.00000000000 0.45189192891 0.54810804129
0.00000000000 0.45011782646 0.54988211393
0.00000000000 0.45267477632 0.54732519388
0.00000000000 0.45165422559 0.54834580421
0.00000000000 0.45008370280 0.54991632700
0.00000000000 0.44991618395 0.55008381605
0.00000000000 0.45078203082 0.54921793938
0.00000000000 0.45168259740 0.54831737280
0.00000000000 0.45110729337 0.54889273643
0.00000000000 0.45179015398 0.54820990562
0.00000000000 0.45151135325 0.54848861694
0.00000000000 0.45233237743 0.54766762257
0.00000000000 0.45236644149 0.54763352871
0.00000000000 0.45085039735 0.54914957285
0.00000000000 0.45001682639 0.54998320341
0.00000000000 0.45152881742 0.54847121239
0.00000000000 0.44965556264 0.55034440756
0.00000000000 0.45203286409 0.54796713591
0.00000000000 0.45143955946 0.54856044054
0.00000000000 0.45024389029 0.54975616932
0.00000000000 0.45100894570 0.54899108410
0.00000000000 0.45219066739 0.54780930281
0.00000000000 0.44960802794 0.55039197206
0.00000000000 0.45128983259 0.54871016741
0.00000000000 0.45066842437 0.54933160543
0.00000000000 0.45206773281 0.54793226719
0.00000000000 0.44975650311 0.55024343729
0.00000000000 0.45179045200 0.54820954800
1.00000000000 0.45238599181 0.54761397839
0.00000000000 0.45023503900 0.54976499081
0.00000000000 0.45128455758 0.54871541262
0.00000000000 0.45243811607 0.54756194353
0.00000000000 0.45208749175 0.54791247845
1.00000000000 0.45040944219 0.54959052801
0.00000000000 0.45015302300 0.54984700680
0.00000000000 0.45085495710 0.54914504290
0.00000000000 0.45167863369 0.54832142591
0.00000000000 0.45050483942 0.54949510098
0.00000000000 0.45227584243 0.54772418737
0.00000000000 0.45185256004 0.54814743996
0.00000000000 0.45009699464 0.54990297556
0.00000000000 0.45119848847 0.54880154133
0.00000000000 0.45157516003 0.54842483997
0.00000000000 0.44989666343 0.55010330677
0.00000000000 0.45152196288 0.54847806692
0.00000000000 0.45025485754 0.54974520206
0.00000000000 0.45010465384 0.54989540577
0.00000000000 0.45077213645 0.54922783375
0.00000000000 0.45145231485 0.54854768515
0.00000000000 0.45026645064 0.54973357916
0.00000000000 0.45224204659 0.54775792360
1.00000000000 0.44996160269 0.55003839731
0.00000000000 0.45164766908 0.54835236073
0.00000000000 0.45313218236 0.54686784744
0.00000000000 0.45153659582 0.54846340418
0.00000000000 0.45064532757 0.54935461283
0.00000000000 0.45070883632 0.54929113388
0.00000000000 0.45208525658 0.54791474342
0.00000000000 0.44992297888 0.55007708073
0.00000000000 0.45110866427 0.54889136553
0.00000000000 0.45212447643 0.54787552357
0.00000000000 0.45119291544 0.54880708456
0.00000000000 0.45192295313 0.54807704687
1.00000000000 0.45246055722 0.54753941298
0.00000000000 0.45042952895 0.54957050085
0.00000000000 0.45011967421 0.54988032579
0.00000000000 0.45243290067 0.54756712914
0.00000000000 0.45163986087 0.54836010933
1.00000000000 0.45228305459 0.54771691561
0.00000000000 0.44998961687 0.55001038313
0.00000000000 0.45129704475 0.54870295525
0.00000000000 0.45069256425 0.54930746555
0.00000000000 0.44986021519 0.55013984442
0.00000000000 0.45166873932 0.54833120108
0.00000000000 0.45173847675 0.54826146364
0.00000000000 0.45032531023 0.54967468977
0.00000000000 0.45035216212 0.54964780807
0.00000000000 0.45011243224 0.54988753796
0.00000000000 0.45010828972 0.54989171028
0.00000000000 0.44991210103 0.55008786917
0.00000000000 0.45049947500 0.54950052500
0.00000000000 0.45073208213 0.54926788807
1.00000000000 0.45149081945 0.54850918055
0.00000000000 0.44983416796 0.55016583204
0.00000000000 0.44967871904 0.55032128096
1.00000000000 0.45182862878 0.54817140102
0.00000000000 0.45121431351 0.54878574610
0.00000000000 0.45080184937 0.54919809103
0.00000000000 0.45141637325 0.54858362675
0.00000000000 0.44998127222 0.55001878738
0.00000000000 0.45191270113 0.54808729887
0.00000000000 0.44980761409 0.55019241571
0.00000000000 0.45182806253 0.54817193747
0.00000000000 0.45036122203 0.54963880777
0.00000000000 0.45038083196 0.54961913824
0.00000000000 0.44988459349 0.55011534691
0.00000000000 0.45029878616 0.54970121384
0.00000000000 0.45007848740 0.54992151260
0.00000000000 0.45091927052 0.54908072948
0.00000000000 0.45098790526 0.54901206493
0.00000000000 0.45227244496 0.54772758484
0.00000000000 0.45250332355 0.54749667645
0.00000000000 0.45035031438 0.54964965582
0.00000000000 0.45075178146 0.54924815893
0.00000000000 0.45235705376 0.54764300585
0.00000000000 0.45200258493 0.54799735546
0.00000000000 0.45125508308 0.54874491692
0.00000000000 0.45018014312 0.54981982708
1.00000000000 0.45156571269 0.54843431711
0.00000000000 0.45016923547 0.54983073473
1.00000000000 0.45189756155 0.54810243845
0.00000000000 0.45075348020 0.54924649000
0.00000000000 0.45082959533 0.54917037487
0.00000000000 0.45226079226 0.54773920774
1.00000000000 0.44975313544 0.55024683475
0.00000000000 0.45057758689 0.54942244291
0.00000000000 0.45086741447 0.54913252592
0.00000000000 0.45186352730 0.54813647270
1.00000000000 0.45091673732 0.54908323288
0.00000000000 0.45052739978 0.54947257042
0.00000000000 0.45003017783 0.54996979237
0.00000000000 0.45110306144 0.54889690876
0.00000000000 0.45083925128 0.54916077852
0.00000000000 0.44986474514 0.55013519526
0.00000000000 0.45002016425 0.54997980595
0.00000000000 0.45147290826 0.54852712154
0.00000000000 0.45108658075 0.54891341925
0.00000000000 0.45038628578 0.54961371422
0.00000000000 0.45153313875 0.54846680164
0.00000000000 0.45188269019 0.54811733961
0.00000000000 0.45026960969 0.54973042011
0.00000000000 0.45209375024 0.54790627956
1.00000000000 0.45177215338 0.54822790623
0.00000000000 0.45130011439 0.54869985580
0.00000000000 0.45117264986 0.54882735014
0.00000000000 0.44981884956 0.55018115044
0.00000000000 0.45145848393 0.54854148626
0.00000000000 0.44967779517 0.55032223463
0.00000000000 0.45094776154 0.54905223846
0.00000000000 0.44982296228 0.55017703772
0.00000000000 0.45073151588 0.54926848412
0.00000000000 0.45031011105 0.54968988895
0.00000000000 0.45009163022 0.54990833998
0.00000000000 0.45208838582 0.54791164398
0.00000000000 0.45201331377 0.54798662663
0.00000000000 0.45121043921 0.54878962040
0.00000000000 0.45099967718 0.54900038242
1.00000000000 0.45217350125 0.54782646894
0.00000000000 0.44961455464 0.55038547516
0.00000000000 0.45115619898 0.54884380102
0.00000000000 0.45173481107 0.54826515913
0.00000000000 0.45218020678 0.54781979322
0.00000000000 0.45096874237 0.54903125763
0.00000000000 0.45235157013 0.54764842987
0.00000000000 0.45126995444 0.54873007536
0.00000000000 0.45205962658 0.54794037342
0.00000000000 0.45041522384 0.54958474636
