1.00000000000 0.18401832879 0.81598162651
0.00000000000 0.98779451847 0.01220547594
0.00000000000 0.97293388844 0.02706613205
0.00000000000 0.98375791311 0.01624205522
0.00000000000 0.89526653290 0.10473345965
0.00000000000 0.98807561398 0.01192434411
0.00000000000 0.98001468182 0.01998536661
0.00000000000 0.98818969727 0.01181027107
0.00000000000 0.70220917463 0.29779088497
0.00000000000 0.98417317867 0.01582677290
1.00000000000 0.90918064117 0.09081931412
0.00000000000 0.87685006857 0.12314989418
1.00000000000 0.03802884743 0.96197116375
0.00000000000 0.94065088034 0.05934906751
0.00000000000 0.98554974794 0.01445029024
0.00000000000 0.87569433451 0.12430565804
0.00000000000 0.98459321260 0.01540679112
0.00000000000 0.32395052910 0.67604941130
0.00000000000 0.56836897135 0.43163102865
0.00000000000 0.06976527721 0.93023467064
0.00000000000 0.89939337969 0.10060658306
0.00000000000 0.97486591339 0.02513408661
1.00000000000 0.03680856153 0.96319150925
0.00000000000 0.51769864559 0.48230135441
0.00000000000 0.98415541649 0.01584463380
0.00000000000 0.18031595647 0.81968402863
0.00000000000 0.50110566616 0.49889433384
0.00000000000 0.43208232522 0.56791764498
0.00000000000 0.98711001873 0.01288998034
0.00000000000 0.97921365499 0.02078632638
0.00000000000 0.98847615719 0.01152380835
0.00000000000 0.98150557280 0.01849439740
0.00000000000 0.64188021421 0.35811978579
0.00000000000 0.07666211575 0.92333793640
0.00000000000 0.09488018602 0.90511983633
0.00000000000 0.90947586298 0.09052411467
0.00000000000 0.59904479980 0.40095514059
0.00000000000 0.98028999567 0.01971004158
0.00000000000 0.98506468534 0.01493529417
0.00000000000 0.98792970181 0.01207024511
1.00000000000 0.04158063233 0.95841938257
1.00000000000 0.03840349615 0.96159648895
0.00000000000 0.98235714436 0.01764287800
0.00000000000 0.13448239863 0.86551761627
0.00000000000 0.06667879969 0.93332123756
0.00000000000 0.97941786051 0.02058215998
0.00000000000 0.98477780819 0.01522219460
1.00000000000 0.92981934547 0.07018066198
1.00000000000 0.03740416095 0.96259588003
0.00000000000 0.98724699020 0.01275298465
0.00000000000 0.98458927870 0.01541070361
0.00000000000 0.98742759228 0.01257245243
0.00000000000 0.66386210918 0.33613789082
0.00000000000 0.82284015417 0.17715984583
0.00000000000 0.98617142439 0.01382856723
0.00000000000 0.98627763987 0.01372233219
0.00000000000 0.98461663723 0.01538338698
0.00000000000 0.97765290737 0.02234705910
0.00000000000 0.96749997139 0.03249998763
0.00000000000 0.98675239086 0.01324763242
1.00000000000 0.95282667875 0.04717328772
0.00000000000 0.98827201128 0.01172800362
0.00000000000 0.98374038935 0.01625964977
0.00000000000 0.04312524945 0.95687472820
0.00000000000 0.98110145330 0.01889853179
0.00000000000 0.02250996977 0.97749000788
0.00000000000 0.02673674189 0.97326332331
1.00000000000 0.04883752763 0.95116245747
1.00000000000 0.04415689409 0.95584309101
0.00000000000 0.94466060400 0.05533936247
1.00000000000 0.98274761438 0.01725235581
1.00000000000 0.02659736760 0.97340267897
0.00000000000 0.98408448696 0.01591544598
0.00000000000 0.98353648186 0.01646355726
0.00000000000 0.98650753498 0.01349244826
0.00000000000 0.98670202494 0.01329794712
1.00000000000 0.10279252380 0.89720743895
1.00000000000 0.44799146056 0.55200856924
0.00000000000 0.08190058172 0.91809940338
0.00000000000 0.08757698536 0.91242301464
1.00000000000 0.36175435781 0.63824564219
0.00000000000 0.88119101524 0.11880899966
1.00000000000 0.98686361313 0.01313645113
0.00000000000 0.03151687980 0.96848315001
1.00000000000 0.05143805966 0.94856190681
0.00000000000 0.98556905985 0.01443091501
0.00000000000 0.95662671328 0.04337327555
0.00000000000 0.02822569385 0.97177428007
0.00000000000 0.98318266869 0.01681729592
0.00000000000 0.02366774902 0.97633230686
0.00000000000 0.47283449769 0.52716553211
1.00000000000 0.05348552763 0.94651454687
0.00000000000 0.98685777187 0.01314215641
0.00000000000 0.90099889040 0.09900110215
0.00000000000 0.95852434635 0.04147567600
0.00000000000 0.96464079618 0.03535920754
1.00000000000 0.07526106387 0.92473888397
0.00000000000 0.98731207848 0.01268789545
0.00000000000 0.88757592440 0.11242404580
0.00000000000 0.96972543001 0.03027452901
0.00000000000 0.05527526885 0.94472473860
0.00000000000 0.83563560247 0.16436438262
0.00000000000 0.74257582426 0.25742420554
0.00000000000 0.97959065437 0.02040934563
0.00000000000 0.98809748888 0.01190247014
0.00000000000 0.97839099169 0.02160896920
0.00000000000 0.97087204456 0.02912794240
0.00000000000 0.18317922950 0.81682074070
0.00000000000 0.43063637614 0.56936359406
0.00000000000 0.97291845083 0.02708151937
0.00000000000 0.96021860838 0.03978143260
1.00000000000 0.58057481050 0.41942515969
0.00000000000 0.98697853088 0.01302140858
0.00000000000 0.04952955619 0.95047044754
0.00000000000 0.98269444704 0.01730552688
0.00000000000 0.98827236891 0.01172759850
0.00000000000 0.98458415270 0.01541585848
0.00000000000 0.10246111453 0.89753895998
1.00000000000 0.07803719491 0.92196285725
0.00000000000 0.83814114332 0.16185881197
1.00000000000 0.07967575639 0.92032420635
0.00000000000 0.95251595974 0.04748405889
0.00000000000 0.98676294088 0.01323710848
0.00000000000 0.06568535417 0.93431466818
0.00000000000 0.04876189306 0.95123809576
0.00000000000 0.05699828267 0.94300174713
0.00000000000 0.98569434881 0.01430557389
0.00000000000 0.98758333921 0.01241662540
0.00000000000 0.98508608341 0.01491385605
1.00000000000 0.03407783806 0.96592217684
0.00000000000 0.91056948900 0.08943048120
1.00000000000 0.02871094644 0.97128909826
0.00000000000 0.71294927597 0.28705075383
0.00000000000 0.52412277460 0.47587719560
0.00000000000 0.97408199310 0.02591795847
1.00000000000 0.87686645985 0.12313348800
0.00000000000 0.93456345797 0.06543651968
0.00000000000 0.98149198294 0.01850800402
1.00000000000 0.28397732973 0.71602267027
0.00000000000 0.03526047990 0.96473956108
0.00000000000 0.91550117731 0.08449880034
0.00000000000 0.22240844369 0.77759158611
1.00000000000 0.98323857784 0.01676145755
0.00000000000 0.97950404882 0.02049590088
0.00000000000 0.98788702488 0.01211298350
0.00000000000 0.97487801313 0.02512197569
0.00000000000 0.95359802246 0.04640204459
0.00000000000 0.35781362653 0.64218634367
0.00000000000 0.96060025692 0.03939968720
0.00000000000 0.34192150831 0.65807849169
0.00000000000 0.91998982430 0.08001020551
0.00000000000 0.98593300581 0.01406696625
0.00000000000 0.98751604557 0.01248393115
0.00000000000 0.02215632796 0.97784370184
0.00000000000 0.97518503666 0.02481491305
0.00000000000 0.24774551392 0.75225448608
0.00000000000 0.98695576191 0.01304425020
0.00000000000 0.98741406202 0.01258593798
0.00000000000 0.98680835962 0.01319171209
1.00000000000 0.02771195024 0.97228807211
0.00000000000 0.02193623409 0.97806370258
0.00000000000 0.88999879360 0.11000117660
0.00000000000 0.98413830996 0.01586173102
0.00000000000 0.97691082954 0.02308920026
0.00000000000 0.98508483171 0.01491520274
1.00000000000 0.98622339964 0.01377663482
0.00000000000 0.97538095713 0.02461897209
0.00000000000 0.95842444897 0.04157559574
0.00000000000 0.98596525192 0.01403477602
0.00000000000 0.98540514708 0.01459490415
1.00000000000 0.03008294106 0.96991705894
0.00000000000 0.98474806547 0.01525192987
0.00000000000 0.98335415125 0.01664584503
1.00000000000 0.95610773563 0.04389234260
0.00000000000 0.29936337471 0.70063668489
0.00000000000 0.32197514176 0.67802488804
0.00000000000 0.95983350277 0.04016644135
0.00000000000 0.07774752378 0.92225253582
0.00000000000 0.97660988569 0.02339008078
0.00000000000 0.96562039852 0.03437959403
0.00000000000 0.98092687130 0.01907313615
0.00000000000 0.98635208607 0.01364788320
0.00000000000 0.32286527753 0.67713469267
0.00000000000 0.10115235299 0.89884763956
0.00000000000 0.78293013573 0.21706983447
0.00000000000 0.98583257198 0.01416747086
0.00000000000 0.98709887266 0.01290114876
1.00000000000 0.02321370319 0.97678625584
0.00000000000 0.98568046093 0.01431949250
0.00000000000 0.95503062010 0.04496939108
0.00000000000 0.14332151413 0.85667848587
0.00000000000 0.98689901829 0.01310094632
0.00000000000 0.43815353513 0.56184643507
0.00000000000 0.94842183590 0.05157820880
0.00000000000 0.98772335052 0.01227670442
0.00000000000 0.22841346264 0.77158653736
0.00000000000 0.93924379349 0.06075616926
0.00000000000 0.98299658298 0.01700336859
0.00000000000 0.05265700817 0.94734293222
0.00000000000 0.96391135454 0.03608869389
0.00000000000 0.77449393272 0.22550609708
0.00000000000 0.35298919678 0.64701080322
1.00000000000 0.02314434014 0.97685563564
1.00000000000 0.84828174114 0.15171828866
0.00000000000 0.67493975163 0.32506024837
0.00000000000 0.97407358885 0.02592640929
1.00000000000 0.98014932871 0.01985071041
0.00000000000 0.98693650961 0.01306344755
0.00000000000 0.98650848866 0.01349154115
1.00000000000 0.04214276373 0.95785725117
1.00000000000 0.08440218866 0.91559779644
0.00000000000 0.03131809831 0.96868193150
0.00000000000 0.97129166126 0.02870832011
0.00000000000 0.97520476580 0.02479523048
0.00000000000 0.94602406025 0.05397590995
0.00000000000 0.55641573668 0.44358423352
0.00000000000 0.98502886295 0.01497111376
0.00000000000 0.98632788658 0.01367214322
0.00000000000 0.09510942549 0.90489059687
0.00000000000 0.97238999605 0.02760998346
0.00000000000 0.75050503016 0.24949491024
0.00000000000 0.34271261096 0.65728741884
0.00000000000 0.52773779631 0.47226220369
0.00000000000 0.98638528585 0.01361469924
0.00000000000 0.98206800222 0.01793194003
0.00000000000 0.98102897406 0.01897097751
1.00000000000 0.02224528417 0.97775465250
0.00000000000 0.98724746704 0.01275251526
0.00000000000 0.94832921028 0.05167086050
1.00000000000 0.73792016506 0.26207983494
0.00000000000 0.02625163086 0.97374832630
0.00000000000 0.98519033194 0.01480971090
0.00000000000 0.98737490177 0.01262505073
0.00000000000 0.98635351658 0.01364649087
0.00000000000 0.78217166662 0.21782836318
0.00000000000 0.95714670420 0.04285331443
0.00000000000 0.98536950350 0.01463053189
0.00000000000 0.98146456480 0.01853549294
0.00000000000 0.92590677738 0.07409317046
0.00000000000 0.77209800482 0.22790195048
0.00000000000 0.96545726061 0.03454279527
0.00000000000 0.97896498442 0.02103505842
0.00000000000 0.98661637306 0.01338361576
1.00000000000 0.04154275730 0.95845729113
0.00000000000 0.98729974031 0.01270023640
0.00000000000 0.98468762636 0.01531235594
0.00000000000 0.02899081632 0.97100925446
0.00000000000 0.97931438684 0.02068559267
0.00000000000 0.44801706076 0.55198293924
0.00000000000 0.04077485949 0.95922511816
0.00000000000 0.70397442579 0.29602557421
0.00000000000 0.98510819674 0.01489182096
1.00000000000 0.02362787351 0.97637218237
1.00000000000 0.98357486725 0.01642515697
0.00000000000 0.35674923658 0.64325082302
0.00000000000 0.01868162490 0.98131841421
0.00000000000 0.16455118358 0.83544880152
1.00000000000 0.45704934001 0.54295068979
0.00000000000 0.98734259605 0.01265735459
0.00000000000 0.97681218386 0.02318787761
0.00000000000 0.04794116691 0.95205891132
0.00000000000 0.98790144920 0.01209854987
0.00000000000 0.22247003019 0.77753001451
0.00000000000 0.97214376926 0.02785619348
0.00000000000 0.98598319292 0.01401681360
0.00000000000 0.98565381765 0.01434616372
0.00000000000 0.98615229130 0.01384767890
0.00000000000 0.04825995862 0.95174002647
0.00000000000 0.82396817207 0.17603182793
0.00000000000 0.98382169008 0.01617833972
0.00000000000 0.03554967046 0.96445035934
0.00000000000 0.98757672310 0.01242323406
0.00000000000 0.97188663483 0.02811334468
0.00000000000 0.91310483217 0.08689522743
0.00000000000 0.81797808409 0.18202196062
1.00000000000 0.91692095995 0.08307906985
0.00000000000 0.53328806162 0.46671196818
0.00000000000 0.32803690434 0.67196309566
0.00000000000 0.98709064722 0.01290942822
0.00000000000 0.20838271081 0.79161733389
0.00000000000 0.40950670838 0.59049332142
1.00000000000 0.77292543650 0.22707448900
1.00000000000 0.89240425825 0.10759574175
0.00000000000 0.40746855736 0.59253150225
0.00000000000 0.37027847767 0.62972152233
0.00000000000 0.98308128119 0.01691875048
0.00000000000 0.98308414221 0.01691588014
1.00000000000 0.31030136347 0.68969863653
0.00000000000 0.68945330381 0.31054669619
1.00000000000 0.41226369143 0.58773636818
0.00000000000 0.27431219816 0.72568780184
0.00000000000 0.97622376680 0.02377622202
0.00000000000 0.77964985371 0.22035017610
0.00000000000 0.02851263806 0.97148740292
1.00000000000 0.23257072270 0.76742923260
0.00000000000 0.23896570504 0.76103430986
0.00000000000 0.98690819740 0.01309184451
0.00000000000 0.08988732100 0.91011267900
0.00000000000 0.95786881447 0.04213118553
0.00000000000 0.98852831125 0.01147165149
0.00000000000 0.96357816458 0.03642180189
0.00000000000 0.41991594434 0.58008402586
0.00000000000 0.98688250780 0.01311752386
1.00000000000 0.10727214813 0.89272779226
0.00000000000 0.49593579769 0.50406420231
0.00000000000 0.98685520887 0.01314471662
0.00000000000 0.40748766065 0.59251236916
0.00000000000 0.98801350594 0.01198646054
0.00000000000 0.97209125757 0.02790872194
1.00000000000 0.69083738327 0.30916267633
0.00000000000 0.92397892475 0.07602107525
0.00000000000 0.21316425502 0.78683567047
0.00000000000 0.98731833696 0.01268171612
0.00000000000 0.93312251568 0.06687752903
1.00000000000 0.02551442385 0.97448563576
1.00000000000 0.98594087362 0.01405905187
1.00000000000 0.26826095581 0.73173904419
0.00000000000 0.58624798059 0.41375207901
1.00000000000 0.98688411713 0.01311589964
0.00000000000 0.96210557222 0.03789449856
0.00000000000 0.26932293177 0.73067706823
0.00000000000 0.83711564541 0.16288429499
0.00000000000 0.96285939217 0.03714065626
0.00000000000 0.53864228725 0.46135774255
0.00000000000 0.98111706972 0.01888285764
0.00000000000 0.98317897320 0.01682095416
0.00000000000 0.88515156507 0.11484847963
1.00000000000 0.02485461533 0.97514533997
0.00000000000 0.97170466185 0.02829525806
0.00000000000 0.98547768593 0.01452228613
1.00000000000 0.98495066166 0.01504936349
0.00000000000 0.98781013489 0.01218988933
0.00000000000 0.82422995567 0.17577004433
0.00000000000 0.92319148779 0.07680850476
1.00000000000 0.02344903722 0.97655099630
0.00000000000 0.07748006284 0.92251998186
1.00000000000 0.11097588390 0.88902413845
1.00000000000 0.25638845563 0.74361151457
0.00000000000 0.14764939249 0.85235059261
0.00000000000 0.98852097988 0.01147899777
1.00000000000 0.33633238077 0.66366767883
1.00000000000 0.98309314251 0.01690682583
1.00000000000 0.03358741477 0.96641254425
0.00000000000 0.98822337389 0.01177670527
0.00000000000 0.10000947863 0.89999049902
0.00000000000 0.93858689070 0.06141312420
0.00000000000 0.98322182894 0.01677810960
0.00000000000 0.14043606818 0.85956388712
1.00000000000 0.93849354982 0.06150644645
0.00000000000 0.98751324415 0.01248671766
1.00000000000 0.02080864646 0.97919136286
0.00000000000 0.46855047345 0.53144955635
1.00000000000 0.98396539688 0.01603462361
0.00000000000 0.98352122307 0.01647881605
0.00000000000 0.98037773371 0.01962229796
0.00000000000 0.11207337677 0.88792663813
0.00000000000 0.98757022619 0.01242984738
0.00000000000 0.05482482910 0.94517511129
0.00000000000 0.97979646921 0.02020350285
0.00000000000 0.98370379210 0.01629613899
0.00000000000 0.98055583239 0.01944416948
0.00000000000 0.22578912973 0.77421087027
0.00000000000 0.97611951828 0.02388047986
1.00000000000 0.05185480788 0.94814515114
0.00000000000 0.94430065155 0.05569939315
0.00000000000 0.98772799969 0.01227200869
0.00000000000 0.45638057590 0.54361939430
0.00000000000 0.97858262062 0.02141736448
0.00000000000 0.98751336336 0.01248660032
0.00000000000 0.97528165579 0.02471830696
0.00000000000 0.98324894905 0.01675106399
0.00000000000 0.98633664846 0.01366333663
0.00000000000 0.98702049255 0.01297948509
0.00000000000 0.98689645529 0.01310349908
0.00000000000 0.04014258832 0.95985746384
0.00000000000 0.92635637522 0.07364366204
0.00000000000 0.15610012412 0.84389990568
0.00000000000 0.94141191244 0.05858805403
1.00000000000 0.98194926977 0.01805073209
0.00000000000 0.98270720243 0.01729280129
0.00000000000 0.98648226261 0.01351780910
0.00000000000 0.98770916462 0.01229085401
0.00000000000 0.04055929184 0.95944070816
0.00000000000 0.98786967993 0.01213029027
0.00000000000 0.98582655191 0.01417349745
0.00000000000 0.96447986364 0.03552017361
0.00000000000 0.98748624325 0.01251374744
0.00000000000 0.98462867737 0.01537131611
0.00000000000 0.98782163858 0.01217833627
0.00000000000 0.83096206188 0.16903789341
0.00000000000 0.07276218385 0.92723780870
0.00000000000 0.05839230865 0.94160771370
0.00000000000 0.97074878216 0.02925124019
0.00000000000 0.97370862961 0.02629132383
0.00000000000 0.96525239944 0.03474757820
1.00000000000 0.03761712462 0.96238285303
0.00000000000 0.98464751244 0.01535252016
0.00000000000 0.98812299967 0.01187697425
0.00000000000 0.96905338764 0.03094653599
1.00000000000 0.11555337161 0.88444662094
0.00000000000 0.62156867981 0.37843126059
0.00000000000 0.83736044168 0.16263952851
0.00000000000 0.97549074888 0.02450926788
0.00000000000 0.98758637905 0.01241365075
0.00000000000 0.98711109161 0.01288894843
0.00000000000 0.98686105013 0.01313895453
0.00000000000 0.98323440552 0.01676552743
0.00000000000 0.98629087210 0.01370910183
1.00000000000 0.54191976786 0.45808020234
0.00000000000 0.98747164011 0.01252840459
0.00000000000 0.03060263768 0.96939730644
0.00000000000 0.03994315490 0.96005684137
0.00000000000 0.04615967348 0.95384031534
0.00000000000 0.98729228973 0.01270775031
0.00000000000 0.66584807634 0.33415189385
0.00000000000 0.83559447527 0.16440556943
0.00000000000 0.94074648619 0.05925357714
0.00000000000 0.02240275033 0.97759729624
0.00000000000 0.98504477739 0.01495514624
0.00000000000 0.98720270395 0.01279724017
0.00000000000 0.18557666242 0.81442332268
0.00000000000 0.92677760124 0.07322240621
0.00000000000 0.90134614706 0.09865384549
0.00000000000 0.98801362514 0.01198639907
0.00000000000 0.98785120249 0.01214876585
0.00000000000 0.98436629772 0.01563376002
0.00000000000 0.96574825048 0.03425179794
0.00000000000 0.05266753584 0.94733244181
0.00000000000 0.01827592216 0.98172402382
0.00000000000 0.97957473993 0.02042526752
0.00000000000 0.97782200575 0.02217796445
0.00000000000 0.83986443281 0.16013559699
0.00000000000 0.98762357235 0.01237641554
0.00000000000 0.64587390423 0.35412603617
0.00000000000 0.76096588373 0.23903410137
0.00000000000 0.96981948614 0.03018055111
0.00000000000 0.98029881716 0.01970114186
0.00000000000 0.98710364103 0.01289635152
0.00000000000 0.12755259871 0.87244743109
0.00000000000 0.98806715012 0.01193287037
1.00000000000 0.01839364320 0.98160642385
0.00000000000 0.98200339079 0.01799660176
0.00000000000 0.16208615899 0.83791381121
0.00000000000 0.98720526695 0.01279474702
0.00000000000 0.98450076580 0.01549920812
1.00000000000 0.02660630643 0.97339373827
0.00000000000 0.34854537249 0.65145462751
0.00000000000 0.96032053232 0.03967944533
0.00000000000 0.98582917452 0.01417073887
0.00000000000 0.14848777652 0.85151225328
1.00000000000 0.10113356262 0.89886641502
0.00000000000 0.98675066233 0.01324933302
0.00000000000 0.04557897523 0.95442104340
0.00000000000 0.82664555311 0.17335446179
0.00000000000 0.98724061251 0.01275942847
0.00000000000 0.92643553019 0.07356441021
0.00000000000 0.98358201981 0.01641797833
0.00000000000 0.72115683556 0.27884319425
0.00000000000 0.73213231564 0.26786765456
0.00000000000 0.98690456152 0.01309544872
0.00000000000 0.74589329958 0.25410664082
0.00000000000 0.89742738008 0.10257265717
0.00000000000 0.97449600697 0.02550395951
0.00000000000 0.97980105877 0.02019898966
0.00000000000 0.98544657230 0.01455340348
0.00000000000 0.98708087206 0.01291919686
0.00000000000 0.96811389923 0.03188616410
0.00000000000 0.85053402185 0.14946590364
0.00000000000 0.98796296120 0.01203705650
0.00000000000 0.70091348886 0.29908657074
0.00000000000 0.30918234587 0.69081765413
0.00000000000 0.98026651144 0.01973350905
1.00000000000 0.17472323775 0.82527673244
0.00000000000 0.60478711128 0.39521285892
0.00000000000 0.98629295826 0.01370701287
0.00000000000 0.97424751520 0.02575247549
0.00000000000 0.98149454594 0.01850542612
1.00000000000 0.01821995340 0.98178011179
0.00000000000 0.98249012232 0.01750982739
0.00000000000 0.23983509839 0.76016485691
0.00000000000 0.97034978867 0.02965016291
0.00000000000 0.76849365234 0.23150636256
0.00000000000 0.16756178439 0.83243823051
0.00000000000 0.51440924406 0.48559075594
0.00000000000 0.98100626469 0.01899372414
0.00000000000 0.06511989236 0.93488007784
0.00000000000 0.95300638676 0.04699366540
0.00000000000 0.98746764660 0.01253229752
0.00000000000 0.98458385468 0.01541621238
0.00000000000 0.18633800745 0.81366199255
0.00000000000 0.98792403936 0.01207603049
0.00000000000 0.14125059545 0.85874944925
0.00000000000 0.75444036722 0.24555961788
1.00000000000 0.82222270966 0.17777724564
1.00000000000 0.25506037474 0.74493962526
0.00000000000 0.98401397467 0.01598605141
1.00000000000 0.48579972982 0.51420027018
0.00000000000 0.88706666231 0.11293338984
0.00000000000 0.96877306700 0.03122693487
0.00000000000 0.67788666487 0.32211333513
0.00000000000 0.82889759541 0.17110238969
0.00000000000 0.05106041580 0.94893962145
0.00000000000 0.98239463568 0.01760533825
0.00000000000 0.45113527775 0.54886472225
0.00000000000 0.97940254211 0.02059751190
0.00000000000 0.98527204990 0.01472800504
0.00000000000 0.50732398033 0.49267598987
0.00000000000 0.95969611406 0.04030382633
0.00000000000 0.95274347067 0.04725658521
0.00000000000 0.98456329107 0.01543670893
0.00000000000 0.20458491147 0.79541504383
1.00000000000 0.70910060406 0.29089936614
0.00000000000 0.92707359791 0.07292640954
0.00000000000 0.14844287932 0.85155719519
0.00000000000 0.35447940230 0.64552056789
0.00000000000 0.98379230499 0.01620771363
0.00000000000 0.98566019535 0.01433984749
0.00000000000 0.98607397079 0.01392604224
0.00000000000 0.94884568453 0.05115434900
0.00000000000 0.98394000530 0.01606002077
0.00000000000 0.80428230762 0.19571766257
0.00000000000 0.98503923416 0.01496072486
0.00000000000 0.98581194878 0.01418804284
0.00000000000 0.79041653872 0.20958341658
0.00000000000 0.96931588650 0.03068407997
0.00000000000 0.26101064682 0.73898935318
0.00000000000 0.91384863853 0.08615132421
0.00000000000 0.16192807257 0.83807194233
0.00000000000 0.96493709087 0.03506293520
0.00000000000 0.98091113567 0.01908883452
0.00000000000 0.65225660801 0.34774345160
0.00000000000 0.98500168324 0.01499834005
0.00000000000 0.98832243681 0.01167759020
0.00000000000 0.01816280372 0.98183721304
1.00000000000 0.02255535685 0.97744464874
0.00000000000 0.03275999427 0.96724003553
0.00000000000 0.98056119680 0.01943879016
0.00000000000 0.64581811428 0.35418188572
0.00000000000 0.05278933421 0.94721060991
0.00000000000 0.16762633622 0.83237361908
1.00000000000 0.04339577630 0.95660424232
1.00000000000 0.02408922464 0.97591078281
0.00000000000 0.98684746027 0.01315253880
0.00000000000 0.01878799871 0.98121201992
0.00000000000 0.98836088181 0.01163910143
0.00000000000 0.33213883638 0.66786122322
0.00000000000 0.04693169147 0.95306831598
0.00000000000 0.94089239836 0.05910758302
0.00000000000 0.98768901825 0.01231091656
0.00000000000 0.02475506812 0.97524487972
0.00000000000 0.95351094007 0.04648904875
0.00000000000 0.19080117345 0.80919879675
0.00000000000 0.98781269789 0.01218735799
0.00000000000 0.03592342511 0.96407663822
0.00000000000 0.84812092781 0.15187911689
0.00000000000 0.98648262024 0.01351736952
0.00000000000 0.12433284521 0.87566721439
0.00000000000 0.42184823751 0.57815182209
0.00000000000 0.98308092356 0.01691908576
0.00000000000 0.66621512175 0.33378490806
0.00000000000 0.15297374129 0.84702628851
0.00000000000 0.98682063818 0.01317940280
0.00000000000 0.97692739964 0.02307257615
0.00000000000 0.96825700998 0.03174297512
1.00000000000 0.95209813118 0.04790186509
0.00000000000 0.98607105017 0.01392895076
0.00000000000 0.88735914230 0.11264089495
1.00000000000 0.03644005954 0.96355992556
0.00000000000 0.98008877039 0.01991125382
1.00000000000 0.20940986276 0.79059010744
0.00000000000 0.97415584326 0.02584410086
0.00000000000 0.98834699392 0.01165298373
0.00000000000 0.97937017679 0.02062983625
0.00000000000 0.98336422443 0.01663575321
0.00000000000 0.96924746037 0.03075257875
0.00000000000 0.60302942991 0.39697057009
0.00000000000 0.98801231384 0.01198768057
0.00000000000 0.88895744085 0.11104255915
0.00000000000 0.95861971378 0.04138031229
0.00000000000 0.98645615578 0.01354380138
0.00000000000 0.97425156832 0.02574837767
0.00000000000 0.93394833803 0.06605173647
0.00000000000 0.26853340864 0.73146659136
0.00000000000 0.18900550902 0.81099444628
0.00000000000 0.82943791151 0.17056208849
0.00000000000 0.98710143566 0.01289856713
0.00000000000 0.98836970329 0.01163034141
0.00000000000 0.98493421078 0.01506577712
0.00000000000 0.98748707771 0.01251291018
0.00000000000 0.03511812910 0.96488189697
0.00000000000 0.03997826576 0.96002167463
0.00000000000 0.98436719179 0.01563277096
1.00000000000 0.76964676380 0.23035320640
1.00000000000 0.93410938978 0.06589063257
0.00000000000 0.13366642594 0.86633354425
0.00000000000 0.98222702742 0.01777291298
0.00000000000 0.98689097166 0.01310898270
0.00000000000 0.79456657171 0.20543342829
0.00000000000 0.98628926277 0.01371079870
0.00000000000 0.44304239750 0.55695760250
1.00000000000 0.02475198545 0.97524809837
1.00000000000 0.02520758286 0.97479236126
0.00000000000 0.98820018768 0.01179979090
1.00000000000 0.98750150204 0.01249844767
0.00000000000 0.98698490858 0.01301509887
0.00000000000 0.98375838995 0.01624161378
1.00000000000 0.94366574287 0.05633422732
0.00000000000 0.40643760562 0.59356242418
1.00000000000 0.11803185940 0.88196814060
0.00000000000 0.02105879039 0.97894120216
0.00000000000 0.94755494595 0.05244512856
0.00000000000 0.98820030689 0.01179966796
0.00000000000 0.98846882582 0.01153114811
0.00000000000 0.04152255133 0.95847743750
0.00000000000 0.74328768253 0.25671234727
0.00000000000 0.03712802008 0.96287196875
0.00000000000 0.79258000851 0.20741996169
0.00000000000 0.04408343881 0.95591658354
0.00000000000 0.04942244291 0.95057749748
0.00000000000 0.98550921679 0.01449084096
0.00000000000 0.98781639338 0.01218363270
0.00000000000 0.97157919407 0.02842084877
0.00000000000 0.98736751080 0.01263254881
0.00000000000 0.96832430363 0.03167574480
1.00000000000 0.74076360464 0.25923636556
0.00000000000 0.49363434315 0.50636571646
0.00000000000 0.03798599169 0.96201395988
0.00000000000 0.96896374226 0.03103622049
0.00000000000 0.85660976171 0.14339019358
0.00000000000 0.13965672255 0.86034321785
0.00000000000 0.47401392460 0.52598607540
0.00000000000 0.98787295818 0.01212705672
0.00000000000 0.05194230005 0.94805771112
0.00000000000 0.68295216560 0.31704780459
1.00000000000 0.68400561810 0.31599435210
0.00000000000 0.98590952158 0.01409049518
0.00000000000 0.96459364891 0.03540630639
0.00000000000 0.97775900364 0.02224097587
0.00000000000 0.98622810841 0.01377186831
0.00000000000 0.98596590757 0.01403410360
1.00000000000 0.61549705267 0.38450291753
0.00000000000 0.98668855429 0.01331140473
1.00000000000 0.02615237050 0.97384768724
0.00000000000 0.98757439852 0.01242563408
0.00000000000 0.94904470444 0.05095526204
0.00000000000 0.10914336890 0.89085662365
1.00000000000 0.23720452189 0.76279544830
0.00000000000 0.98610997200 0.01388998330
0.00000000000 0.97112852335 0.02887145989
1.00000000000 0.02211325429 0.97788673639
0.00000000000 0.98414641619 0.01585361734
0.00000000000 0.98219406605 0.01780595630
0.00000000000 0.98508667946 0.01491335314
1.00000000000 0.43792453408 0.56207543612
0.00000000000 0.32090508938 0.67909491062
0.00000000000 0.96475297213 0.03524704278
0.00000000000 0.98649907112 0.01350091118
0.00000000000 0.97375959158 0.02624038234
0.00000000000 0.07802020758 0.92197978497
1.00000000000 0.88747471571 0.11252531409
0.00000000000 0.98741441965 0.01258554030
0.00000000000 0.96519643068 0.03480362892
1.00000000000 0.25422155857 0.74577838182
0.00000000000 0.98156309128 0.01843691245
0.00000000000 0.98672604561 0.01327393670
0.00000000000 0.97506135702 0.02493862994
0.00000000000 0.98667103052 0.01332902350
0.00000000000 0.98539066315 0.01460936759
0.00000000000 0.58990669250 0.41009324789
0.00000000000 0.05861784145 0.94138211012
0.00000000000 0.98603463173 0.01396535989
0.00000000000 0.98426938057 0.01573057286
0.00000000000 0.98339968920 0.01660033874
0.00000000000 0.12990774214 0.87009221315
0.00000000000 0.55175685883 0.44824317098
0.00000000000 0.88909333944 0.11090661585
1.00000000000 0.02586046420 0.97413957119
1.00000000000 0.12212464958 0.87787532806
0.00000000000 0.88407558203 0.11592440307
0.00000000000 0.98672938347 0.01327055879
0.00000000000 0.98793005943 0.01206997875
1.00000000000 0.97818642855 0.02181361616
0.00000000000 0.93917357922 0.06082641333
0.00000000000 0.02577051148 0.97422951460
0.00000000000 0.98099225760 0.01900779270
0.00000000000 0.62273657322 0.37726342678
0.00000000000 0.02102128603 0.97897869349
0.00000000000 0.90173578262 0.09826418757
1.00000000000 0.10621394962 0.89378601313
0.00000000000 0.98739814758 0.01260181703
0.00000000000 0.98626756668 0.01373240910
0.00000000000 0.46017450094 0.53982543945
0.00000000000 0.04724727944 0.95275276899
0.00000000000 0.97721034288 0.02278965339
0.00000000000 0.01879937388 0.98120063543
0.00000000000 0.98544597626 0.01455400512
0.00000000000 0.95668834448 0.04331164807
0.00000000000 0.85817569494 0.14182431996
0.00000000000 0.37117978930 0.62882024050
0.00000000000 0.98065924644 0.01934082992
1.00000000000 0.83131980896 0.16868014634
0.00000000000 0.03461471200 0.96538525820
0.00000000000 0.97024011612 0.02975989506
0.00000000000 0.53418660164 0.46581342816
0.00000000000 0.21521636844 0.78478366137
0.00000000000 0.98759680986 0.01240319014
0.00000000000 0.98486196995 0.01513809152
1.00000000000 0.03078383021 0.96921622753
0.00000000000 0.14121603966 0.85878396034
0.00000000000 0.89670449495 0.10329549760
0.00000000000 0.98580706120 0.01419293974
0.00000000000 0.03104416654 0.96895581484
0.00000000000 0.98166948557 0.01833054237
0.00000000000 0.97622251511 0.02377742715
0.00000000000 0.98398894072 0.01601108536
0.00000000000 0.98686450720 0.01313542388
0.00000000000 0.74680924416 0.25319081545
1.00000000000 0.03166734055 0.96833270788
0.00000000000 0.98483371735 0.01516630594
0.00000000000 0.35305663943 0.64694339037
1.00000000000 0.01989068650 0.98010933399
0.00000000000 0.05425389856 0.94574606419
0.00000000000 0.98684453964 0.01315546688
0.00000000000 0.98330301046 0.01669706218
1.00000000000 0.91210931540 0.08789075166
0.00000000000 0.97074121237 0.02925874107
0.00000000000 0.98844820261 0.01155175548
0.00000000000 0.12948368490 0.87051635981
0.00000000000 0.97852760553 0.02147240564
0.00000000000 0.98662114143 0.01337890048
0.00000000000 0.98519992828 0.01480010618
0.00000000000 0.80499947071 0.19500057399
0.00000000000 0.98706972599 0.01293027867
0.00000000000 0.93515503407 0.06484494358
0.00000000000 0.97200429440 0.02799567766
1.00000000000 0.97516894341 0.02483111620
0.00000000000 0.97834241390 0.02165760472
0.00000000000 0.71288615465 0.28711381555
0.00000000000 0.77050453424 0.22949539125
0.00000000000 0.42526251078 0.57473742962
0.00000000000 0.12844006717 0.87155991793
0.00000000000 0.66200089455 0.33799913526
0.00000000000 0.57974588871 0.42025408149
1.00000000000 0.25040197372 0.74959808588
0.00000000000 0.08342255652 0.91657739878
1.00000000000 0.07026515156 0.92973482609
0.00000000000 0.02534629777 0.97465378046
0.00000000000 0.73968207836 0.26031795144
0.00000000000 0.88868898153 0.11131098866
0.00000000000 0.98276144266 0.01723851077
0.00000000000 0.98121118546 0.01878878847
0.00000000000 0.98160821199 0.01839179732
0.00000000000 0.02007587627 0.97992408276
0.00000000000 0.97484076023 0.02515925840
1.00000000000 0.88198930025 0.11801075935
0.00000000000 0.23781214654 0.76218783855
0.00000000000 0.03443871811 0.96556127071
1.00000000000 0.22586753964 0.77413249016
0.00000000000 0.96997988224 0.03002012335
1.00000000000 0.02882868424 0.97117131948
1.00000000000 0.03192608804 0.96807390451
1.00000000000 0.04196559638 0.95803445578
1.00000000000 0.97668743134 0.02331252955
0.00000000000 0.85070157051 0.14929839969
0.00000000000 0.98422777653 0.01577219553
0.00000000000 0.98769474030 0.01230524760
0.00000000000 0.98695987463 0.01304016914
0.00000000000 0.84915113449 0.15084882081
0.00000000000 0.71170842648 0.28829160333
0.00000000000 0.45872506499 0.54127496481
0.00000000000 0.32669696212 0.67330300808
0.00000000000 0.97627806664 0.02372196317
0.00000000000 0.98784863949 0.01215133537
0.00000000000 0.93460112810 0.06539881229
0.00000000000 0.07003569603 0.92996430397
1.00000000000 0.50621080399 0.49378919601
0.00000000000 0.06060815975 0.93939191103
0.00000000000 0.97732841969 0.02267159149
1.00000000000 0.03569161147 0.96430832148
0.00000000000 0.96647238731 0.03352759033
1.00000000000 0.01906446368 0.98093557358
0.00000000000 0.98158466816 0.01841536537
0.00000000000 0.98768413067 0.01231582928
0.00000000000 0.23420833051 0.76579171419
0.00000000000 0.98728185892 0.01271814946
0.00000000000 0.98515790701 0.01484204084
0.00000000000 0.03638701141 0.96361303329
0.00000000000 0.98556035757 0.01443962473
0.00000000000 0.96896868944 0.03103128076
0.00000000000 0.90691024065 0.09308974445
1.00000000000 0.98747348785 0.01252656989
0.00000000000 0.03106272407 0.96893721819
0.00000000000 0.95221006870 0.04778987169
1.00000000000 0.94052338600 0.05947658047
0.00000000000 0.82429647446 0.17570351064
0.00000000000 0.97809267044 0.02190728486
0.00000000000 0.94118535519 0.05881471559
0.00000000000 0.46936738491 0.53063255548
1.00000000000 0.03168451786 0.96831548214
0.00000000000 0.98520445824 0.01479560882
0.00000000000 0.98333215714 0.01666781306
0.00000000000 0.98615789413 0.01384216547
0.00000000000 0.98791378736 0.01208625734
0.00000000000 0.97953391075 0.02046611346
0.00000000000 0.96872115135 0.03127885610
1.00000000000 0.90066283941 0.09933713078
0.00000000000 0.98488378525 0.01511622593
0.00000000000 0.97916954756 0.02083048970
0.00000000000 0.98203182220 0.01796818711
0.00000000000 0.03626002371 0.96373999119
0.00000000000 0.97976559401 0.02023437433
0.00000000000 0.14913192391 0.85086810589
0.00000000000 0.88440108299 0.11559888721
1.00000000000 0.06986387819 0.93013620377
1.00000000000 0.02790598199 0.97209405899
0.00000000000 0.93804204464 0.06195796281
0.00000000000 0.98671591282 0.01328402013
0.00000000000 0.27065798640 0.72934204340
0.00000000000 0.18036565185 0.81963437796
0.00000000000 0.02620329335 0.97379666567
0.00000000000 0.98332720995 0.01667275280
0.00000000000 0.98400348425 0.01599646360
0.00000000000 0.89619821310 0.10380180180
0.00000000000 0.46069794893 0.53930205107
0.00000000000 0.98690503836 0.01309497561
0.00000000000 0.93238312006 0.06761690974
1.00000000000 0.04254165664 0.95745825768
0.00000000000 0.96876883507 0.03123119660
0.00000000000 0.26401084661 0.73598915339
0.00000000000 0.90669286251 0.09330713004
0.00000000000 0.98647099733 0.01352900360
1.00000000000 0.26637127995 0.73362874985
1.00000000000 0.94832438231 0.05167566985
0.00000000000 0.97741115093 0.02258883230
0.00000000000 0.03671379760 0.96328616142
0.00000000000 0.87585920095 0.12414075434
1.00000000000 0.97545868158 0.02454133891
0.00000000000 0.98749685287 0.01250316296
0.00000000000 0.98804503679 0.01195503119
1.00000000000 0.02453438193 0.97546559572
1.00000000000 0.38288897276 0.61711108685
0.00000000000 0.10535700619 0.89464294910
0.00000000000 0.11040662974 0.88959342241
0.00000000000 0.93857324123 0.06142675504
0.00000000000 0.98072010279 0.01927988045
0.00000000000 0.98856598139 0.01143408939
0.00000000000 0.98159146309 0.01840857789
0.00000000000 0.98666906357 0.01333092805
1.00000000000 0.02872249484 0.97127747536
0.00000000000 0.93112838268 0.06887160987
1.00000000000 0.93377077579 0.06622919440
0.00000000000 0.98800849915 0.01199148130
0.00000000000 0.28982219100 0.71017783880
0.00000000000 0.05757384747 0.94242620468
1.00000000000 0.95296424627 0.04703570902
0.00000000000 0.98724734783 0.01275268476
0.00000000000 0.98708760738 0.01291234978
0.00000000000 0.87029486895 0.12970514596
1.00000000000 0.51675355434 0.48324644566
1.00000000000 0.02522484399 0.97477513552
1.00000000000 0.98735457659 0.01264547370
0.00000000000 0.81653225422 0.18346780539
1.00000000000 0.02300474793 0.97699522972
0.00000000000 0.89218187332 0.10781808943
0.00000000000 0.98005288839 0.01994714513
0.00000000000 0.95739984512 0.04260012880
0.00000000000 0.98524034023 0.01475968119
0.00000000000 0.98701488972 0.01298515592
0.00000000000 0.98163753748 0.01836252026
0.00000000000 0.98152530193 0.01847470365
0.00000000000 0.90299952030 0.09700047225
0.00000000000 0.06918719411 0.93081283569
0.00000000000 0.98582875729 0.01417129301
0.00000000000 0.34055414796 0.65944588184
1.00000000000 0.02895271964 0.97104734182
0.00000000000 0.98544842005 0.01455159858
1.00000000000 0.16378790140 0.83621209860
0.00000000000 0.98817455769 0.01182544511
0.00000000000 0.09974177182 0.90025824308
0.00000000000 0.52406626940 0.47593376040
0.00000000000 0.06825947016 0.93174052238
0.00000000000 0.92852944136 0.07147055119
0.00000000000 0.98526626825 0.01473380532
0.00000000000 0.04227126017 0.95772874355
0.00000000000 0.98551577330 0.01448423695
0.00000000000 0.98819518089 0.01180484518
0.00000000000 0.02426363155 0.97573643923
0.00000000000 0.07184260339 0.92815744877
0.00000000000 0.37075713277 0.62924289703
0.00000000000 0.95340347290 0.04659658670
0.00000000000 0.95697945356 0.04302058369
0.00000000000 0.98752206564 0.01247796603
0.00000000000 0.97159540653 0.02840457670
0.00000000000 0.97353470325 0.02646527812
0.00000000000 0.97980070114 0.02019928209
1.00000000000 0.02164780162 0.97835218906
0.00000000000 0.91244286299 0.08755719662
0.00000000000 0.98625850677 0.01374145970
0.00000000000 0.97291100025 0.02708895504
0.00000000000 0.36988168955 0.63011831045
0.00000000000 0.97997838259 0.02002159692
0.00000000000 0.97663271427 0.02336727828
0.00000000000 0.98174035549 0.01825965382
0.00000000000 0.98715668917 0.01284330338
0.00000000000 0.60947763920 0.39052230120
0.00000000000 0.72587776184 0.27412220836
0.00000000000 0.98181951046 0.01818044856
1.00000000000 0.97640287876 0.02359712310
0.00000000000 0.98712605238 0.01287400909
0.00000000000 0.28534999490 0.71465003490
1.00000000000 0.08477988094 0.91522008181
1.00000000000 0.08908137679 0.91091865301
0.00000000000 0.98623406887 0.01376599539
0.00000000000 0.15075057745 0.84924942255
0.00000000000 0.93871372938 0.06128624082
0.00000000000 0.97181659937 0.02818343416
0.00000000000 0.98814058304 0.01185942721
0.00000000000 0.98679453135 0.01320546772
0.00000000000 0.96834844351 0.03165156394
0.00000000000 0.39835745096 0.60164254904
0.00000000000 0.16347116232 0.83652883768
0.00000000000 0.93057715893 0.06942281872
0.00000000000 0.20813222229 0.79186779261
0.00000000000 0.98715555668 0.01284442749
1.00000000000 0.02440389246 0.97559618950
0.00000000000 0.95294529200 0.04705471545
1.00000000000 0.03102249652 0.96897751093
0.00000000000 0.98395961523 0.01604040153
0.00000000000 0.97461628914 0.02538378350
0.00000000000 0.97876793146 0.02123210765
0.00000000000 0.29751020670 0.70248979330
0.00000000000 0.98557186127 0.01442817505
0.00000000000 0.97631454468 0.02368542552
0.00000000000 0.98828619719 0.01171373483
0.00000000000 0.97051626444 0.02948367037
0.00000000000 0.98245584965 0.01754414290
0.00000000000 0.92845505476 0.07154493034
0.00000000000 0.90581089258 0.09418911487
0.00000000000 0.13532443345 0.86467552185
0.00000000000 0.94261115789 0.05738884956
0.00000000000 0.98798984289 0.01201011706
0.00000000000 0.79016423225 0.20983570814
0.00000000000 0.69819915295 0.30180087686
0.00000000000 0.72779881954 0.27220121026
0.00000000000 0.05074311048 0.94925689697
0.00000000000 0.98566758633 0.01433243509
0.00000000000 0.96838086843 0.03161913529
0.00000000000 0.04850397632 0.95149606466
0.00000000000 0.97907304764 0.02092688717
0.00000000000 0.83401882648 0.16598114371
1.00000000000 0.76991987228 0.23008008301
0.00000000000 0.10159227252 0.89840769768
0.00000000000 0.81559199095 0.18440800905
0.00000000000 0.93792617321 0.06207379699
0.00000000000 0.97032934427 0.02967065573
0.00000000000 0.97318875790 0.02681121416
0.00000000000 0.97917670012 0.02082324028
0.00000000000 0.98667997122 0.01332005206
1.00000000000 0.98763775826 0.01236226596
0.00000000000 0.87028223276 0.12971770763
0.00000000000 0.92524498701 0.07475500554
0.00000000000 0.98759788275 0.01240216848
0.00000000000 0.75055867434 0.24944132566
0.00000000000 0.98422294855 0.01577702165
0.00000000000 0.98560601473 0.01439401414
0.00000000000 0.98492497206 0.01507506333
0.00000000000 0.08479600400 0.91520398855
0.00000000000 0.84584325552 0.15415672958
0.00000000000 0.98717051744 0.01282949094
0.00000000000 0.92298626900 0.07701371610
1.00000000000 0.11350674182 0.88649320602
0.00000000000 0.98722386360 0.01277613081
0.00000000000 0.53419488668 0.46580511332
0.00000000000 0.92421114445 0.07578880340
0.00000000000 0.92027527094 0.07972472161
0.00000000000 0.04107386991 0.95892614126
1.00000000000 0.94549268484 0.05450734496
0.00000000000 0.13910676539 0.86089318991
0.00000000000 0.29584458470 0.70415538549
0.00000000000 0.93952119350 0.06047875807
0.00000000000 0.98752814531 0.01247192174
1.00000000000 0.40204790235 0.59795212746
0.00000000000 0.98083692789 0.01916302741
0.00000000000 0.98072272539 0.01927727647
0.00000000000 0.98620891571 0.01379105635
1.00000000000 0.03187246248 0.96812748909
0.00000000000 0.03623510897 0.96376490593
0.00000000000 0.09747526795 0.90252470970
0.00000000000 0.93272680044 0.06727325916
0.00000000000 0.98721504211 0.01278499980
0.00000000000 0.96717852354 0.03282155469
0.00000000000 0.98763054609 0.01236943994
0.00000000000 0.95221912861 0.04778083414
0.00000000000 0.98701918125 0.01298086718
0.00000000000 0.97977614403 0.02022384666
0.00000000000 0.98847442865 0.01152561698
0.00000000000 0.46679356694 0.53320646286
0.00000000000 0.18665592372 0.81334406137
0.00000000000 0.89814513922 0.10185492784
0.00000000000 0.98753601313 0.01246393006
0.00000000000 0.92490833998 0.07509159297
0.00000000000 0.98163557053 0.01836436987
1.00000000000 0.94597089291 0.05402907729
0.00000000000 0.95490819216 0.04509180039
0.00000000000 0.98407888412 0.01592110097
1.00000000000 0.16698820889 0.83301180601
0.00000000000 0.09480746090 0.90519249439
0.00000000000 0.98636877537 0.01363119856
0.00000000000 0.98780339956 0.01219659112
0.00000000000 0.98592835665 0.01407158934
0.00000000000 0.96485972404 0.03514032066
1.00000000000 0.94865381718 0.05134614557
1.00000000000 0.71099483967 0.28900513053
0.00000000000 0.97259324789 0.02740671486
1.00000000000 0.98600929976 0.01399068721
0.00000000000 0.98624241352 0.01375763398
0.00000000000 0.98800116777 0.01199889183
0.00000000000 0.76808440685 0.23191554844
0.00000000000 0.83369392157 0.16630613804
1.00000000000 0.04238940775 0.95761066675
1.00000000000 0.09755458683 0.90244537592
0.00000000000 0.98718190193 0.01281803939
1.00000000000 0.02273809724 0.97726190090
0.00000000000 0.19362185895 0.80637812614
0.00000000000 0.14744535089 0.85255461931
0.00000000000 0.98465627432 0.01534375828
0.00000000000 0.49665537477 0.50334459543
0.00000000000 0.98012435436 0.01987568289
0.00000000000 0.02406438440 0.97593563795
0.00000000000 0.85700172186 0.14299824834
0.00000000000 0.98712641001 0.01287363935
0.00000000000 0.59111118317 0.40888875723
0.00000000000 0.97065699100 0.02934300341
0.00000000000 0.86498862505 0.13501137495
0.00000000000 0.98640775681 0.01359221432
1.00000000000 0.03977278620 0.96022719145
0.00000000000 0.96313375235 0.03686628491
0.00000000000 0.04441910610 0.95558089018
0.00000000000 0.91528099775 0.08471896499
0.00000000000 0.03799800575 0.96200197935
0.00000000000 0.98264116049 0.01735880226
0.00000000000 0.85448700190 0.14551299810
0.00000000000 0.04137507081 0.95862489939
0.00000000000 0.98709547520 0.01290451270
0.00000000000 0.98824346066 0.01175654493
0.00000000000 0.97564530373 0.02435467206
0.00000000000 0.98625630140 0.01374373026
0.00000000000 0.98144423962 0.01855573244
0.00000000000 0.97805494070 0.02194501273
0.00000000000 0.98839718103 0.01160277892
0.00000000000 0.96643316746 0.03356688842
0.00000000000 0.98662763834 0.01337238774
0.00000000000 0.06059845164 0.93940156698
0.00000000000 0.19183662534 0.80816334486
1.00000000000 0.02216955274 0.97783046961
0.00000000000 0.98274868727 0.01725127734
0.00000000000 0.05272892490 0.94727104902
0.00000000000 0.08250253648 0.91749751568
0.00000000000 0.98702675104 0.01297324989
0.00000000000 0.71493178606 0.28506821394
0.00000000000 0.98741418123 0.01258577220
0.00000000000 0.11254879832 0.88745123148
0.00000000000 0.97072428465 0.02927567251
0.00000000000 0.98870110512 0.01129884459
0.00000000000 0.97860306501 0.02139698155
0.00000000000 0.03486927226 0.96513068676
0.00000000000 0.09888544679 0.90111458302
0.00000000000 0.98110342026 0.01889653318
0.00000000000 0.08842395246 0.91157603264
1.00000000000 0.02025265992 0.97974729538
0.00000000000 0.98704093695 0.01295905467
0.00000000000 0.21783600748 0.78216397762
0.00000000000 0.95945453644 0.04054544121
0.00000000000 0.06090490520 0.93909513950
0.00000000000 0.94685178995 0.05314817652
0.00000000000 0.98559474945 0.01440528221
0.00000000000 0.90693420172 0.09306585789
0.00000000000 0.97830063105 0.02169939876
0.00000000000 0.97021061182 0.02978936397
0.00000000000 0.97999382019 0.02000612952
0.00000000000 0.57442867756 0.42557138205
1.00000000000 0.98254203796 0.01745790988
0.00000000000 0.93435192108 0.06564808637
0.00000000000 0.03636794165 0.96363204718
0.00000000000 0.97884446383 0.02115549333
0.00000000000 0.94107735157 0.05892263353
0.00000000000 0.86922997236 0.13077008724
1.00000000000 0.98244851828 0.01755153202
0.00000000000 0.98798775673 0.01201222185
1.00000000000 0.93703007698 0.06296990812
0.00000000000 0.74030345678 0.25969651341
0.00000000000 0.98581844568 0.01418156177
1.00000000000 0.82363122702 0.17636881769
0.00000000000 0.04736630991 0.95263361931
0.00000000000 0.46587648988 0.53412353992
0.00000000000 0.60068368912 0.39931628108
0.00000000000 0.02640902251 0.97359097004
0.00000000000 0.27094635367 0.72905367613
0.00000000000 0.97948712111 0.02051280625
1.00000000000 0.91791111231 0.08208891749
0.00000000000 0.97088873386 0.02911120094
0.00000000000 0.66839557886 0.33160442114
0.00000000000 0.83341354132 0.16658645868
0.00000000000 0.94303613901 0.05696384236
0.00000000000 0.98580092192 0.01419907156
0.00000000000 0.13014814258 0.86985188723
1.00000000000 0.97507542372 0.02492455579
0.00000000000 0.98585981131 0.01414025668
0.00000000000 0.95763742924 0.04236260802
0.00000000000 0.07176264375 0.92823731899
0.00000000000 0.79098576307 0.20901419222
0.00000000000 0.93540310860 0.06459695101
0.00000000000 0.97743541002 0.02256452292
0.00000000000 0.97163522243 0.02836470306
0.00000000000 0.98382192850 0.01617808081
0.00000000000 0.98793876171 0.01206126623
0.00000000000 0.90313422680 0.09686578065
0.00000000000 0.98627150059 0.01372847147
1.00000000000 0.98163372278 0.01836631075
0.00000000000 0.98788827658 0.01211175695
0.00000000000 0.88793575764 0.11206424981
0.00000000000 0.98452639580 0.01547363959
0.00000000000 0.98808997869 0.01191001479
0.00000000000 0.16329072416 0.83670926094
0.00000000000 0.97678554058 0.02321442962
0.00000000000 0.98417985439 0.01582008228
0.00000000000 0.98737293482 0.01262708940
1.00000000000 0.02373212203 0.97626787424
0.00000000000 0.98582851887 0.01417149883
0.00000000000 0.98681086302 0.01318906061
0.00000000000 0.98835819960 0.01164185628
0.00000000000 0.22609134018 0.77390867472
0.00000000000 0.98530048132 0.01469948236
0.00000000000 0.03072995320 0.96927005053
0.00000000000 0.98566299677 0.01433706377
0.00000000000 0.98489665985 0.01510335226
0.00000000000 0.97058153152 0.02941848710
0.00000000000 0.91247159243 0.08752837032
0.00000000000 0.98776650429 0.01223354694
1.00000000000 0.96633255482 0.03366743401
0.00000000000 0.98462277651 0.01537721232
0.00000000000 0.98842442036 0.01157553494
0.00000000000 0.95935446024 0.04064549133
1.00000000000 0.97661364079 0.02338632755
0.00000000000 0.01901783235 0.98098218441
0.00000000000 0.98685675859 0.01314319577
1.00000000000 0.02175498568 0.97824507952
0.00000000000 0.97721546888 0.02278451435
0.00000000000 0.10537202656 0.89462798834
0.00000000000 0.98438060284 0.01561936177
0.00000000000 0.98721200228 0.01278797258
0.00000000000 0.97367304564 0.02632696182
0.00000000000 0.98387515545 0.01612488925
0.00000000000 0.96749186516 0.03250821307
0.00000000000 0.98599851131 0.01400154643
0.00000000000 0.12963612378 0.87036389112
1.00000000000 0.69771569967 0.30228433013
0.00000000000 0.96544247866 0.03455758467
0.00000000000 0.98472046852 0.01527954172
0.00000000000 0.97696632147 0.02303362451
1.00000000000 0.72663527727 0.27336472273
0.00000000000 0.08227396011 0.91772603989
1.00000000000 0.97102802992 0.02897199616
0.00000000000 0.17844666541 0.82155328989
0.00000000000 0.96394431591 0.03605563939
0.00000000000 0.93669474125 0.06330528110
0.00000000000 0.98475027084 0.01524973102
