0.00000000000 0.32820224762 0.67179775238
0.00000000000 0.66860961914 0.33139041066
0.00000000000 0.72104257345 0.27895742655
1.00000000000 0.44447052479 0.55552953482
1.00000000000 0.40381112695 0.59618884325
0.00000000000 0.70174539089 0.29825463891
0.00000000000 0.71067792177 0.28932201862
1.00000000000 0.40458899736 0.59541094303
0.00000000000 0.70591378212 0.29408624768
0.00000000000 0.72942537069 0.27057456970
0.00000000000 0.62009704113 0.37990301847
0.00000000000 0.71275031567 0.28724962473
1.00000000000 0.72640943527 0.27359059453
0.00000000000 0.68251568079 0.31748431921
0.00000000000 0.72719997168 0.27279999852
0.00000000000 0.41798236966 0.58201766014
0.00000000000 0.64285439253 0.35714557767
0.00000000000 0.71202021837 0.28797975183
0.00000000000 0.72574400902 0.27425599098
1.00000000000 0.33290344477 0.66709655523
0.00000000000 0.38577193022 0.61422806978
0.00000000000 0.71197223663 0.28802776337
0.00000000000 0.30327349901 0.69672650099
0.00000000000 0.72667908669 0.27332094312
0.00000000000 0.59957748652 0.40042248368
0.00000000000 0.63780742884 0.36219260097
0.00000000000 0.36009386182 0.63990616798
0.00000000000 0.72646021843 0.27353981137
0.00000000000 0.72058880329 0.27941116691
0.00000000000 0.64865672588 0.35134330392
0.00000000000 0.70995217562 0.29004782438
0.00000000000 0.71592587233 0.28407406807
0.00000000000 0.68906790018 0.31093212962
0.00000000000 0.70796656609 0.29203349352
0.00000000000 0.67246723175 0.32753273845
0.00000000000 0.33009558916 0.66990447044
0.00000000000 0.62266653776 0.37733346224
0.00000000000 0.71602058411 0.28397941589
0.00000000000 0.67630279064 0.32369723916
1.00000000000 0.44042831659 0.55957162380
0.00000000000 0.71437823772 0.28562179208
0.00000000000 0.72500127554 0.27499872446
0.00000000000 0.72299569845 0.27700430155
0.00000000000 0.71818709373 0.28181287646
0.00000000000 0.61551564932 0.38448432088
0.00000000000 0.55554646254 0.44445350766
0.00000000000 0.50044316053 0.49955686927
1.00000000000 0.56347107887 0.43652892113
0.00000000000 0.71909642220 0.28090357780
1.00000000000 0.33964437246 0.66035556793
0.00000000000 0.72502940893 0.27497053146
0.00000000000 0.69255667925 0.30744335055
0.00000000000 0.70786851645 0.29213148355
0.00000000000 0.67064481974 0.32935515046
0.00000000000 0.45798635483 0.54201370478
0.00000000000 0.50029486418 0.49970510602
0.00000000000 0.64614844322 0.35385158658
0.00000000000 0.71786683798 0.28213313222
0.00000000000 0.66085124016 0.33914873004
1.00000000000 0.42330798507 0.57669198513
0.00000000000 0.48298835754 0.51701164246
1.00000000000 0.39217033982 0.60782963037
0.00000000000 0.66093146801 0.33906850219
0.00000000000 0.72430258989 0.27569743991
0.00000000000 0.51892912388 0.48107084632
0.00000000000 0.72521090508 0.27478909492
0.00000000000 0.69363796711 0.30636197329
0.00000000000 0.71788704395 0.28211292624
0.00000000000 0.69780844450 0.30219155550
1.00000000000 0.31804612279 0.68195384741
1.00000000000 0.71205943823 0.28794056177
0.00000000000 0.72469747066 0.27530252934
0.00000000000 0.71738612652 0.28261393309
1.00000000000 0.29865333438 0.70134669542
0.00000000000 0.33062091470 0.66937911510
0.00000000000 0.71477144957 0.28522852063
0.00000000000 0.39409163594 0.60590833426
0.00000000000 0.40344303846 0.59655696154
0.00000000000 0.72411626577 0.27588373423
0.00000000000 0.70795953274 0.29204049706
0.00000000000 0.65222191811 0.34777811170
0.00000000000 0.70797938108 0.29202061892
0.00000000000 0.42779204249 0.57220798731
0.00000000000 0.70156788826 0.29843214154
1.00000000000 0.42967391014 0.57032608986
0.00000000000 0.66744762659 0.33255237341
0.00000000000 0.72431921959 0.27568078041
1.00000000000 0.36981108785 0.63018894196
0.00000000000 0.72321867943 0.27678126097
0.00000000000 0.71656507254 0.28343492746
1.00000000000 0.32080352306 0.67919653654
0.00000000000 0.71025300026 0.28974699974
1.00000000000 0.39178329706 0.60821670294
0.00000000000 0.72375655174 0.27624344826
0.00000000000 0.72493636608 0.27506357431
0.00000000000 0.72014737129 0.27985256910
0.00000000000 0.71403276920 0.28596729040
0.00000000000 0.65891504288 0.34108489752
0.00000000000 0.69504410028 0.30495592952
0.00000000000 0.72568285465 0.27431714535
0.00000000000 0.69212323427 0.30787679553
0.00000000000 0.70333272219 0.29666727781
0.00000000000 0.55953836441 0.44046160579
0.00000000000 0.50866311789 0.49133685231
0.00000000000 0.31575784087 0.68424218893
1.00000000000 0.41250824928 0.58749175072
0.00000000000 0.71984744072 0.28015261889
0.00000000000 0.38201436400 0.61798560619
0.00000000000 0.69985854626 0.30014145374
0.00000000000 0.40403833985 0.59596168995
0.00000000000 0.72217822075 0.27782177925
0.00000000000 0.32317262888 0.67682737112
0.00000000000 0.33483624458 0.66516381502
0.00000000000 0.71873444319 0.28126549721
0.00000000000 0.72672152519 0.27327853441
0.00000000000 0.54010623693 0.45989373326
0.00000000000 0.70982283354 0.29017713666
0.00000000000 0.33773034811 0.66226965189
0.00000000000 0.69229447842 0.30770549178
0.00000000000 0.46271255612 0.53728747368
0.00000000000 0.69367319345 0.30632683635
0.00000000000 0.71703183651 0.28296813369
0.00000000000 0.70284688473 0.29715317488
0.00000000000 0.59992349148 0.40007653832
0.00000000000 0.34893643856 0.65106356144
0.00000000000 0.31859537959 0.68140459061
0.00000000000 0.40204179287 0.59795826674
0.00000000000 0.65593659878 0.34406340122
0.00000000000 0.72790527344 0.27209472656
0.00000000000 0.72340071201 0.27659931779
0.00000000000 0.34094190598 0.65905815363
0.00000000000 0.50142037868 0.49857965112
0.00000000000 0.67844903469 0.32155093551
0.00000000000 0.71519005299 0.28480991721
0.00000000000 0.67205297947 0.32794702053
0.00000000000 0.71129906178 0.28870096803
0.00000000000 0.69667428732 0.30332571268
0.00000000000 0.47434598207 0.52565395832
0.00000000000 0.71433085203 0.28566914797
1.00000000000 0.51918774843 0.48081222177
0.00000000000 0.60611236095 0.39388766885
0.00000000000 0.72112727165 0.27887272835
1.00000000000 0.33145421743 0.66854584217
1.00000000000 0.56543141603 0.43456855416
0.00000000000 0.70441180468 0.29558816552
0.00000000000 0.72729504108 0.27270495892
0.00000000000 0.63412702084 0.36587297916
0.00000000000 0.69545298815 0.30454698205
0.00000000000 0.72861880064 0.27138116956
1.00000000000 0.30611217022 0.69388777018
0.00000000000 0.45281514525 0.54718482494
0.00000000000 0.49526014924 0.50473982096
0.00000000000 0.71217703819 0.28782296181
0.00000000000 0.29132920504 0.70867073536
0.00000000000 0.67807024717 0.32192969322
1.00000000000 0.62135618925 0.37864381075
0.00000000000 0.39719247818 0.60280752182
0.00000000000 0.35620412230 0.64379590750
0.00000000000 0.41273531318 0.58726465702
0.00000000000 0.61523216963 0.38476783037
0.00000000000 0.65977275372 0.34022730589
0.00000000000 0.67498439550 0.32501563430
0.00000000000 0.70937937498 0.29062065482
0.00000000000 0.68919539452 0.31080460548
0.00000000000 0.38197895885 0.61802107096
0.00000000000 0.60072362423 0.39927640557
0.00000000000 0.42644399405 0.57355600595
0.00000000000 0.72634184361 0.27365815639
0.00000000000 0.70429629087 0.29570376873
1.00000000000 0.42347419262 0.57652580738
0.00000000000 0.60000711679 0.39999294281
0.00000000000 0.72725206614 0.27274793386
0.00000000000 0.61986500025 0.38013502955
1.00000000000 0.32561749220 0.67438256741
0.00000000000 0.48459404707 0.51540595293
0.00000000000 0.71011269093 0.28988730907
0.00000000000 0.72516709566 0.27483293414
0.00000000000 0.40570321679 0.59429675341
0.00000000000 0.71843451262 0.28156545758
0.00000000000 0.72477108240 0.27522894740
0.00000000000 0.37287899852 0.62712097168
1.00000000000 0.32072237134 0.67927765846
0.00000000000 0.71518498659 0.28481504321
0.00000000000 0.71591174603 0.28408825397
1.00000000000 0.31014415622 0.68985581398
0.00000000000 0.70812064409 0.29187935591
1.00000000000 0.46794825792 0.53205168247
0.00000000000 0.72113257647 0.27886742353
0.00000000000 0.42953628302 0.57046377659
0.00000000000 0.57831519842 0.42168474197
0.00000000000 0.52336531878 0.47663465142
0.00000000000 0.71408039331 0.28591957688
0.00000000000 0.72119265795 0.27880737185
0.00000000000 0.69962072372 0.30037921667
0.00000000000 0.72664159536 0.27335837483
0.00000000000 0.65953570604 0.34046426415
1.00000000000 0.34295430779 0.65704572201
0.00000000000 0.58459275961 0.41540724039
0.00000000000 0.68124514818 0.31875485182
0.00000000000 0.50530135632 0.49469867349
0.00000000000 0.45164516568 0.54835486412
0.00000000000 0.59287589788 0.40712407231
0.00000000000 0.69665843248 0.30334150791
0.00000000000 0.41354161501 0.58645838499
0.00000000000 0.55068987608 0.44931012392
0.00000000000 0.37555688620 0.62444311380
0.00000000000 0.37831249833 0.62168747187
1.00000000000 0.32947036624 0.67052960396
0.00000000000 0.71483880281 0.28516119719
0.00000000000 0.69710344076 0.30289652944
0.00000000000 0.64270967245 0.35729032755
0.00000000000 0.47251057625 0.52748948336
0.00000000000 0.72450751066 0.27549248934
0.00000000000 0.38022813201 0.61977183819
0.00000000000 0.68187856674 0.31812146306
0.00000000000 0.71287739277 0.28712257743
0.00000000000 0.33259728551 0.66740268469
0.00000000000 0.70015466213 0.29984539747
0.00000000000 0.69208264351 0.30791729689
0.00000000000 0.72251754999 0.27748247981
0.00000000000 0.34896996617 0.65103006363
0.00000000000 0.57861113548 0.42138883471
0.00000000000 0.72025322914 0.27974671125
1.00000000000 0.70775324106 0.29224672914
0.00000000000 0.30838948488 0.69161057472
0.00000000000 0.35215175152 0.64784818888
0.00000000000 0.72634840012 0.27365162969
0.00000000000 0.50035518408 0.49964481592
0.00000000000 0.70966237783 0.29033762217
0.00000000000 0.58476084471 0.41523912549
0.00000000000 0.42344290018 0.57655709982
0.00000000000 0.69741827250 0.30258178711
0.00000000000 0.70919942856 0.29080057144
0.00000000000 0.60801589489 0.39198413491
0.00000000000 0.58304971457 0.41695028543
0.00000000000 0.31333759427 0.68666237593
0.00000000000 0.44791504741 0.55208498240
0.00000000000 0.64607042074 0.35392957926
0.00000000000 0.67016386986 0.32983613014
0.00000000000 0.41764903069 0.58235102892
0.00000000000 0.71000826359 0.28999173641
0.00000000000 0.72163540125 0.27836459875
0.00000000000 0.70708483458 0.29291513562
0.00000000000 0.43968296051 0.56031703949
0.00000000000 0.71979361773 0.28020635247
0.00000000000 0.55767583847 0.44232413173
0.00000000000 0.69294047356 0.30705949664
0.00000000000 0.71285992861 0.28714004159
0.00000000000 0.72774326801 0.27225676179
0.00000000000 0.68639695644 0.31360310316
0.00000000000 0.69141542912 0.30858457088
0.00000000000 0.52417463064 0.47582530975
0.00000000000 0.66321682930 0.33678320050
0.00000000000 0.33437049389 0.66562950611
0.00000000000 0.69681704044 0.30318298936
0.00000000000 0.45202374458 0.54797625542
0.00000000000 0.64292460680 0.35707539320
0.00000000000 0.71647447348 0.28352546692
0.00000000000 0.69668078423 0.30331924558
0.00000000000 0.57459908724 0.42540085316
1.00000000000 0.64627778530 0.35372218490
0.00000000000 0.72878158092 0.27121847868
0.00000000000 0.55209392309 0.44790607691
0.00000000000 0.72290837765 0.27709159255
0.00000000000 0.71946281195 0.28053721786
0.00000000000 0.59224158525 0.40775841475
0.00000000000 0.67943018675 0.32056984305
0.00000000000 0.54908424616 0.45091575384
0.00000000000 0.72296220064 0.27703776956
0.00000000000 0.70128911734 0.29871085286
0.00000000000 0.69191914797 0.30808079243
0.00000000000 0.72223758698 0.27776244283
0.00000000000 0.71113234758 0.28886771202
0.00000000000 0.58606404066 0.41393598914
0.00000000000 0.46552717686 0.53447282314
1.00000000000 0.57482558489 0.42517444491
1.00000000000 0.61270463467 0.38729539514
0.00000000000 0.64778447151 0.35221552849
0.00000000000 0.72178345919 0.27821651101
0.00000000000 0.64492779970 0.35507217050
1.00000000000 0.52086395025 0.47913599014
1.00000000000 0.37864354253 0.62135648727
0.00000000000 0.64813333750 0.35186672211
0.00000000000 0.32747980952 0.67252022028
0.00000000000 0.72020637989 0.27979364991
0.00000000000 0.71915650368 0.28084346652
0.00000000000 0.71415638924 0.28584361076
0.00000000000 0.69473749399 0.30526250601
0.00000000000 0.64955812693 0.35044190288
0.00000000000 0.71784985065 0.28215014935
0.00000000000 0.72285389900 0.27714610100
0.00000000000 0.71947085857 0.28052914143
0.00000000000 0.71627134085 0.28372868896
0.00000000000 0.70744746923 0.29255247116
0.00000000000 0.64954733849 0.35045260191
1.00000000000 0.62753182650 0.37246814370
0.00000000000 0.59181565046 0.40818431973
0.00000000000 0.71010452509 0.28989547491
0.00000000000 0.71238845587 0.28761148453
0.00000000000 0.72257924080 0.27742075920
0.00000000000 0.67866897583 0.32133105397
1.00000000000 0.30242195725 0.69757807255
0.00000000000 0.57344394922 0.42655605078
0.00000000000 0.71753603220 0.28246396780
0.00000000000 0.68578010798 0.31421989202
0.00000000000 0.70385545492 0.29614451528
1.00000000000 0.35081350803 0.64918655157
1.00000000000 0.67655020952 0.32344979048
0.00000000000 0.67202371359 0.32797628641
1.00000000000 0.34185516834 0.65814483166
0.00000000000 0.71981620789 0.28018379211
0.00000000000 0.63030320406 0.36969682574
0.00000000000 0.45805880427 0.54194116592
0.00000000000 0.69696098566 0.30303901434
0.00000000000 0.33197098970 0.66802895069
0.00000000000 0.51424127817 0.48575872183
0.00000000000 0.60943251848 0.39056751132
0.00000000000 0.68088579178 0.31911423802
0.00000000000 0.68949961662 0.31050038338
1.00000000000 0.34008020163 0.65991985798
0.00000000000 0.53829294443 0.46170705557
0.00000000000 0.34033614397 0.65966391563
0.00000000000 0.32948449254 0.67051547766
0.00000000000 0.70783549547 0.29216450453
0.00000000000 0.36017784476 0.63982218504
0.00000000000 0.54177922010 0.45822083950
0.00000000000 0.40471270680 0.59528732300
1.00000000000 0.38634085655 0.61365920305
0.00000000000 0.68076109886 0.31923890114
0.00000000000 0.46325680614 0.53674316406
0.00000000000 0.72131639719 0.27868357301
0.00000000000 0.69919377565 0.30080622435
1.00000000000 0.35810080171 0.64189916849
0.00000000000 0.49921989441 0.50078004599
0.00000000000 0.70332080126 0.29667919874
0.00000000000 0.72452211380 0.27547794580
0.00000000000 0.69717359543 0.30282643437
0.00000000000 0.31566345692 0.68433654308
0.00000000000 0.35164350271 0.64835655689
0.00000000000 0.45918798447 0.54081201553
1.00000000000 0.39103093743 0.60896903276
0.00000000000 0.72512048483 0.27487948537
0.00000000000 0.65049785376 0.34950217605
0.00000000000 0.68998318911 0.31001681089
0.00000000000 0.36182755232 0.63817244768
0.00000000000 0.70343536139 0.29656463861
0.00000000000 0.71151500940 0.28848505020
1.00000000000 0.41125914454 0.58874082565
0.00000000000 0.59330737591 0.40669262409
0.00000000000 0.72637414932 0.27362588048
0.00000000000 0.69286912680 0.30713087320
0.00000000000 0.46686005592 0.53313994408
0.00000000000 0.66858440638 0.33141565323
0.00000000000 0.68092763424 0.31907230616
0.00000000000 0.72605985403 0.27394011617
0.00000000000 0.63414520025 0.36585476995
0.00000000000 0.65123200417 0.34876802564
0.00000000000 0.72080522776 0.27919480205
0.00000000000 0.65250378847 0.34749624133
1.00000000000 0.32924517989 0.67075484991
0.00000000000 0.70704847574 0.29295146465
0.00000000000 0.72574794292 0.27425202727
0.00000000000 0.70753264427 0.29246738553
0.00000000000 0.72540014982 0.27459985018
0.00000000000 0.66538912058 0.33461087942
0.00000000000 0.40012845397 0.59987157583
0.00000000000 0.54751104116 0.45248901844
0.00000000000 0.67003589869 0.32996416092
1.00000000000 0.31456670165 0.68543326855
1.00000000000 0.29985737801 0.70014262199
0.00000000000 0.67655199766 0.32344803214
0.00000000000 0.68407332897 0.31592667103
0.00000000000 0.54573452473 0.45426544547
0.00000000000 0.63644826412 0.36355170608
0.00000000000 0.72483235598 0.27516761422
0.00000000000 0.33123272657 0.66876733303
0.00000000000 0.71695911884 0.28304088116
0.00000000000 0.71951013803 0.28048986197
0.00000000000 0.35883718729 0.64116287231
0.00000000000 0.46301996708 0.53698003292
1.00000000000 0.39525145292 0.60474848747
0.00000000000 0.64929860830 0.35070139170
0.00000000000 0.71813547611 0.28186452389
0.00000000000 0.67497706413 0.32502296567
0.00000000000 0.48684719205 0.51315283775
0.00000000000 0.54294836521 0.45705163479
1.00000000000 0.42042917013 0.57957082987
0.00000000000 0.36827990413 0.63172012568
0.00000000000 0.69487041235 0.30512952805
0.00000000000 0.56620019674 0.43379980326
0.00000000000 0.71320539713 0.28679457307
0.00000000000 0.36406332254 0.63593667746
0.00000000000 0.72746860981 0.27253141999
0.00000000000 0.67486429214 0.32513564825
0.00000000000 0.66220301390 0.33779698610
1.00000000000 0.42645624280 0.57354378700
0.00000000000 0.72721195221 0.27278801799
0.00000000000 0.69005751610 0.30994254351
0.00000000000 0.50155597925 0.49844399095
0.00000000000 0.66594552994 0.33405452967
0.00000000000 0.66659229994 0.33340775967
0.00000000000 0.70821338892 0.29178655148
0.00000000000 0.61279433966 0.38720569015
0.00000000000 0.63767611980 0.36232382059
0.00000000000 0.33449760079 0.66550236940
0.00000000000 0.58530932665 0.41469064355
0.00000000000 0.42534792423 0.57465207577
0.00000000000 0.65924364328 0.34075638652
0.00000000000 0.47151154280 0.52848851681
0.00000000000 0.70098608732 0.29901388288
1.00000000000 0.30397915840 0.69602090120
0.00000000000 0.49128159881 0.50871837139
1.00000000000 0.43462067842 0.56537932158
0.00000000000 0.30286955833 0.69713044167
1.00000000000 0.29727667570 0.70272332430
0.00000000000 0.32918798923 0.67081201077
0.00000000000 0.38891702890 0.61108291149
0.00000000000 0.71310126781 0.28689873219
0.00000000000 0.70724004507 0.29276001453
0.00000000000 0.72567784786 0.27432212234
0.00000000000 0.65672379732 0.34327623248
0.00000000000 0.60544002056 0.39455997944
0.00000000000 0.72242534161 0.27757462859
0.00000000000 0.31251481175 0.68748521805
0.00000000000 0.66028553247 0.33971443772
0.00000000000 0.72624289989 0.27375707030
0.00000000000 0.43514963984 0.56485038996
0.00000000000 0.51821374893 0.48178622127
0.00000000000 0.55974698067 0.44025301933
1.00000000000 0.36356139183 0.63643860817
1.00000000000 0.30230376124 0.69769620895
1.00000000000 0.29724478722 0.70275521278
0.00000000000 0.64295917749 0.35704082251
0.00000000000 0.62296861410 0.37703138590
0.00000000000 0.33681032062 0.66318970919
0.00000000000 0.67803853750 0.32196146250
0.00000000000 0.72170037031 0.27829959989
1.00000000000 0.34566968679 0.65433031321
0.00000000000 0.70868074894 0.29131928086
1.00000000000 0.32360458374 0.67639541626
1.00000000000 0.32188951969 0.67811042070
0.00000000000 0.72039961815 0.27960044146
0.00000000000 0.56657928228 0.43342071772
0.00000000000 0.68183839321 0.31816160679
0.00000000000 0.70575445890 0.29424554110
0.00000000000 0.71459871531 0.28540128469
0.00000000000 0.31419494748 0.68580508232
0.00000000000 0.62585604191 0.37414395809
0.00000000000 0.66493117809 0.33506888151
0.00000000000 0.56855189800 0.43144807220
0.00000000000 0.70522677898 0.29477322102
0.00000000000 0.67394745350 0.32605251670
0.00000000000 0.64513492584 0.35486513376
1.00000000000 0.43150392175 0.56849604845
0.00000000000 0.72304791212 0.27695208788
0.00000000000 0.54265969992 0.45734030008
0.00000000000 0.69834417105 0.30165576935
1.00000000000 0.72623580694 0.27376419306
0.00000000000 0.71145898104 0.28854095936
0.00000000000 0.72591078281 0.27408921719
0.00000000000 0.54153174162 0.45846822858
0.00000000000 0.50993484259 0.49006512761
0.00000000000 0.70335572958 0.29664424062
0.00000000000 0.72198998928 0.27800998092
1.00000000000 0.47095960379 0.52904045582
0.00000000000 0.72103708982 0.27896291018
0.00000000000 0.72154879570 0.27845123410
1.00000000000 0.32717293501 0.67282706499
0.00000000000 0.70149034262 0.29850971699
0.00000000000 0.71436893940 0.28563109040
0.00000000000 0.69323927164 0.30676066875
1.00000000000 0.35537347198 0.64462655783
0.00000000000 0.72710937262 0.27289059758
0.00000000000 0.59051829576 0.40948173404
0.00000000000 0.72744280100 0.27255716920
0.00000000000 0.29677909613 0.70322090387
0.00000000000 0.72703015804 0.27296981215
0.00000000000 0.44410103559 0.55589896441
1.00000000000 0.35441729426 0.64558273554
0.00000000000 0.45171985030 0.54828017950
0.00000000000 0.32480180264 0.67519819736
0.00000000000 0.36572223902 0.63427782059
0.00000000000 0.63235574961 0.36764425039
0.00000000000 0.47266125679 0.52733880281
0.00000000000 0.69760978222 0.30239027739
1.00000000000 0.71506810188 0.28493189812
0.00000000000 0.70857751369 0.29142251611
0.00000000000 0.64942204952 0.35057795048
0.00000000000 0.54903674126 0.45096325874
1.00000000000 0.52662259340 0.47337743640
0.00000000000 0.35717013478 0.64282983541
1.00000000000 0.44481891394 0.55518114567
1.00000000000 0.52967971563 0.47032028437
1.00000000000 0.32473328710 0.67526668310
0.00000000000 0.70133799314 0.29866200686
0.00000000000 0.67889636755 0.32110360265
0.00000000000 0.44992816448 0.55007183552
0.00000000000 0.52971082926 0.47028914094
0.00000000000 0.70512127876 0.29487872124
0.00000000000 0.69473826885 0.30526176095
0.00000000000 0.72296679020 0.27703326941
0.00000000000 0.65175628662 0.34824371338
0.00000000000 0.55668997765 0.44331002235
1.00000000000 0.30188190937 0.69811809063
1.00000000000 0.30331832170 0.69668173790
0.00000000000 0.40884640813 0.59115362167
0.00000000000 0.33464887738 0.66535115242
0.00000000000 0.72405201197 0.27594798803
0.00000000000 0.43562972546 0.56437027454
0.00000000000 0.71299141645 0.28700852394
0.00000000000 0.70327377319 0.29672625661
1.00000000000 0.69532048702 0.30467954278
0.00000000000 0.68625587225 0.31374409795
0.00000000000 0.38376840949 0.61623162031
0.00000000000 0.70590609312 0.29409396648
1.00000000000 0.33090996742 0.66909003258
0.00000000000 0.69547605515 0.30452391505
0.00000000000 0.70089656115 0.29910343885
0.00000000000 0.56541121006 0.43458881974
0.00000000000 0.72268700600 0.27731296420
0.00000000000 0.72104084492 0.27895918489
0.00000000000 0.45026925206 0.54973071814
0.00000000000 0.58142387867 0.41857615113
0.00000000000 0.38563323021 0.61436676979
0.00000000000 0.72437202930 0.27562794089
0.00000000000 0.72283917665 0.27716079354
0.00000000000 0.71637195349 0.28362804651
0.00000000000 0.61434388161 0.38565614820
0.00000000000 0.45531401038 0.54468595982
0.00000000000 0.66616666317 0.33383336663
0.00000000000 0.72594481707 0.27405518293
0.00000000000 0.72655022144 0.27344977856
0.00000000000 0.47425475717 0.52574521303
0.00000000000 0.58048200607 0.41951799393
1.00000000000 0.29488685727 0.70511311293
0.00000000000 0.70652282238 0.29347717762
1.00000000000 0.42961657047 0.57038336992
0.00000000000 0.61486804485 0.38513189554
0.00000000000 0.37450027466 0.62549972534
0.00000000000 0.29893061519 0.70106941462
0.00000000000 0.70239120722 0.29760882258
1.00000000000 0.72420918941 0.27579075098
0.00000000000 0.43227168918 0.56772828102
0.00000000000 0.72664088011 0.27335914969
0.00000000000 0.72459435463 0.27540561557
0.00000000000 0.72607970238 0.27392029762
0.00000000000 0.33258828521 0.66741168499
0.00000000000 0.33258318901 0.66741675138
1.00000000000 0.34538730979 0.65461272001
0.00000000000 0.70072138309 0.29927864671
0.00000000000 0.69910138845 0.30089858174
1.00000000000 0.30779042840 0.69220954180
0.00000000000 0.63243991137 0.36756005883
0.00000000000 0.72300130129 0.27699875832
0.00000000000 0.68769264221 0.31230738759
0.00000000000 0.71071952581 0.28928050399
0.00000000000 0.36561617255 0.63438379765
0.00000000000 0.59702944756 0.40297055244
0.00000000000 0.66920375824 0.33079624176
0.00000000000 0.67814826965 0.32185173035
0.00000000000 0.72184008360 0.27815997601
0.00000000000 0.38396647573 0.61603355408
0.00000000000 0.48801293969 0.51198709011
0.00000000000 0.39072725177 0.60927277803
0.00000000000 0.38157272339 0.61842721701
0.00000000000 0.48946014047 0.51053988934
0.00000000000 0.65709954500 0.34290042520
0.00000000000 0.59531933069 0.40468069911
0.00000000000 0.30306446552 0.69693553448
0.00000000000 0.37582385540 0.62417614460
0.00000000000 0.72395485640 0.27604514360
0.00000000000 0.72678345442 0.27321654558
0.00000000000 0.71018040180 0.28981965780
0.00000000000 0.72381019592 0.27618977427
0.00000000000 0.35218095779 0.64781904221
0.00000000000 0.37510439754 0.62489563227
0.00000000000 0.36520272493 0.63479727507
0.00000000000 0.69115334749 0.30884665251
0.00000000000 0.72781944275 0.27218055725
0.00000000000 0.71016514301 0.28983482718
0.00000000000 0.72566765547 0.27433228493
0.00000000000 0.72750341892 0.27249655128
1.00000000000 0.42383995652 0.57616007328
0.00000000000 0.45489439368 0.54510563612
0.00000000000 0.72722059488 0.27277940512
0.00000000000 0.72589200735 0.27410793304
0.00000000000 0.72827827930 0.27172175050
0.00000000000 0.32124429941 0.67875570059
0.00000000000 0.71569132805 0.28430864215
0.00000000000 0.61496043205 0.38503956795
0.00000000000 0.67816036940 0.32183957100
0.00000000000 0.66560375690 0.33439621329
0.00000000000 0.67633122206 0.32366877794
0.00000000000 0.53924190998 0.46075811982
0.00000000000 0.72222048044 0.27777957916
0.00000000000 0.72377830744 0.27622166276
0.00000000000 0.49634835124 0.50365161896
0.00000000000 0.62861782312 0.37138217688
1.00000000000 0.63987445831 0.36012551188
0.00000000000 0.56871747971 0.43128255010
0.00000000000 0.44311177731 0.55688822269
0.00000000000 0.70126521587 0.29873478413
0.00000000000 0.72839486599 0.27160519361
0.00000000000 0.72219258547 0.27780744433
0.00000000000 0.66854238510 0.33145758510
1.00000000000 0.37311303616 0.62688696384
1.00000000000 0.36324310303 0.63675695658
0.00000000000 0.71729969978 0.28270027041
0.00000000000 0.65916574001 0.34083420038
1.00000000000 0.64287060499 0.35712933540
0.00000000000 0.58916801214 0.41083198786
0.00000000000 0.70086437464 0.29913562536
0.00000000000 0.63937324286 0.36062669754
0.00000000000 0.62942188978 0.37057808042
0.00000000000 0.72763270140 0.27236732841
0.00000000000 0.62823885679 0.37176114321
0.00000000000 0.70559847355 0.29440152645
0.00000000000 0.72906780243 0.27093222737
1.00000000000 0.30263990164 0.69736015797
1.00000000000 0.30406606197 0.69593393803
0.00000000000 0.30879798532 0.69120198488
0.00000000000 0.67440563440 0.32559436560
0.00000000000 0.72472089529 0.27527913451
0.00000000000 0.32123160362 0.67876839638
0.00000000000 0.57454001904 0.42546001077
0.00000000000 0.71675610542 0.28324389458
0.00000000000 0.72568994761 0.27431002259
0.00000000000 0.71452963352 0.28547030687
0.00000000000 0.66497278214 0.33502724767
1.00000000000 0.32218173146 0.67781823874
0.00000000000 0.32876124978 0.67123878002
0.00000000000 0.69656968117 0.30343034863
0.00000000000 0.43736344576 0.56263655424
0.00000000000 0.72246092558 0.27753910422
0.00000000000 0.47662115097 0.52337884903
0.00000000000 0.71421039104 0.28578960896
0.00000000000 0.35506585240 0.64493411779
0.00000000000 0.71734118462 0.28265881538
0.00000000000 0.32607173920 0.67392832041
0.00000000000 0.72002160549 0.27997839451
0.00000000000 0.35430490971 0.64569509029
1.00000000000 0.54688566923 0.45311433077
0.00000000000 0.71149325371 0.28850671649
0.00000000000 0.67318803072 0.32681202888
0.00000000000 0.72241395712 0.27758604288
1.00000000000 0.32028779387 0.67971217632
1.00000000000 0.61379593611 0.38620409369
0.00000000000 0.72435212135 0.27564790845
0.00000000000 0.59912455082 0.40087541938
0.00000000000 0.66072303057 0.33927693963
0.00000000000 0.57389253378 0.42610746622
1.00000000000 0.43018913269 0.56981092691
0.00000000000 0.71829742193 0.28170251846
0.00000000000 0.35569888353 0.64430105686
0.00000000000 0.53001260757 0.46998739243
0.00000000000 0.72191148996 0.27808851004
0.00000000000 0.65638679266 0.34361320734
0.00000000000 0.69192379713 0.30807617307
0.00000000000 0.57463222742 0.42536777258
0.00000000000 0.72821033001 0.27178964019
0.00000000000 0.69606316090 0.30393680930
0.00000000000 0.60952252150 0.39047747850
1.00000000000 0.61994075775 0.38005924225
0.00000000000 0.68228673935 0.31771320105
0.00000000000 0.71937930584 0.28062069416
1.00000000000 0.33341854811 0.66658151150
0.00000000000 0.72488576174 0.27511420846
0.00000000000 0.35122194886 0.64877802134
0.00000000000 0.43699797988 0.56300199032
0.00000000000 0.70683759451 0.29316240549
1.00000000000 0.32289415598 0.67710584402
0.00000000000 0.49396759272 0.50603234768
0.00000000000 0.32166859508 0.67833137512
0.00000000000 0.70747566223 0.29252436757
0.00000000000 0.69041281939 0.30958721042
0.00000000000 0.71824198961 0.28175804019
1.00000000000 0.31152498722 0.68847501278
0.00000000000 0.60484951735 0.39515045285
1.00000000000 0.43425944448 0.56574052572
0.00000000000 0.34622117877 0.65377879143
0.00000000000 0.72274154425 0.27725842595
0.00000000000 0.68331098557 0.31668901443
0.00000000000 0.72661912441 0.27338084579
1.00000000000 0.43068125844 0.56931871176
0.00000000000 0.71246314049 0.28753682971
0.00000000000 0.49351885915 0.50648111105
0.00000000000 0.71919506788 0.28080487251
0.00000000000 0.71974074841 0.28025928140
0.00000000000 0.65917849541 0.34082150459
0.00000000000 0.70611864328 0.29388135672
0.00000000000 0.63377267122 0.36622732878
0.00000000000 0.70181912184 0.29818087816
0.00000000000 0.70245963335 0.29754036665
0.00000000000 0.41788503528 0.58211499453
0.00000000000 0.65358579159 0.34641420841
0.00000000000 0.66680264473 0.33319738507
0.00000000000 0.32217106223 0.67782896757
0.00000000000 0.71211010218 0.28788989782
0.00000000000 0.71662282944 0.28337717056
1.00000000000 0.31639945507 0.68360048532
0.00000000000 0.71843868494 0.28156134486
0.00000000000 0.72564113140 0.27435886860
0.00000000000 0.71172988415 0.28827005625
0.00000000000 0.71902567148 0.28097429872
0.00000000000 0.71862071753 0.28137925267
0.00000000000 0.62800949812 0.37199053168
1.00000000000 0.33345416188 0.66654580832
0.00000000000 0.70447885990 0.29552116990
0.00000000000 0.68770420551 0.31229582429
0.00000000000 0.72113490105 0.27886509895
0.00000000000 0.58353835344 0.41646167636
0.00000000000 0.68475002050 0.31525000930
1.00000000000 0.32055827975 0.67944169044
0.00000000000 0.66451478004 0.33548521996
0.00000000000 0.30925863981 0.69074141979
0.00000000000 0.38398411870 0.61601585150
0.00000000000 0.32018101215 0.67981898785
1.00000000000 0.34083020687 0.65916979313
0.00000000000 0.31732678413 0.68267321587
0.00000000000 0.55870568752 0.44129434228
1.00000000000 0.33878737688 0.66121262312
0.00000000000 0.71699023247 0.28300973773
0.00000000000 0.61307281256 0.38692721725
0.00000000000 0.42186111212 0.57813888788
0.00000000000 0.72589725256 0.27410277724
0.00000000000 0.34405502677 0.65594494343
0.00000000000 0.65277558565 0.34722444415
1.00000000000 0.46810182929 0.53189820051
1.00000000000 0.31091612577 0.68908387423
0.00000000000 0.71848934889 0.28151065111
1.00000000000 0.71986258030 0.28013744950
0.00000000000 0.32519239187 0.67480760813
0.00000000000 0.70701801777 0.29298201203
0.00000000000 0.56968879700 0.43031120300
0.00000000000 0.71622103453 0.28377893567
1.00000000000 0.41052427888 0.58947575092
0.00000000000 0.71604508162 0.28395488858
0.00000000000 0.72475701571 0.27524295449
0.00000000000 0.72160512209 0.27839490771
0.00000000000 0.37197130919 0.62802869081
0.00000000000 0.64215362072 0.35784634948
0.00000000000 0.72438293695 0.27561706305
0.00000000000 0.69493770599 0.30506229401
0.00000000000 0.71396881342 0.28603118658
0.00000000000 0.57688134909 0.42311868072
0.00000000000 0.59154051542 0.40845942497
0.00000000000 0.34029021859 0.65970975161
0.00000000000 0.63615041971 0.36384952068
0.00000000000 0.70209091902 0.29790911078
0.00000000000 0.71792244911 0.28207749128
1.00000000000 0.56797647476 0.43202352524
1.00000000000 0.70297735929 0.29702264071
0.00000000000 0.72505754232 0.27494248748
1.00000000000 0.38830745220 0.61169248819
0.00000000000 0.66557323933 0.33442679048
0.00000000000 0.66360086203 0.33639910817
0.00000000000 0.71484750509 0.28515246511
0.00000000000 0.33490175009 0.66509830952
0.00000000000 0.68696296215 0.31303700805
1.00000000000 0.56824165583 0.43175834417
0.00000000000 0.66059482098 0.33940523863
0.00000000000 0.69409978390 0.30590027571
1.00000000000 0.29785361886 0.70214641094
0.00000000000 0.72818934917 0.27181062102
0.00000000000 0.68607109785 0.31392890215
0.00000000000 0.71648097038 0.28351897001
0.00000000000 0.72617250681 0.27382755280
0.00000000000 0.51739060879 0.48260936141
1.00000000000 0.38734334707 0.61265665293
0.00000000000 0.72578281164 0.27421721816
0.00000000000 0.71861928701 0.28138068318
0.00000000000 0.32762539387 0.67237460613
0.00000000000 0.71251201630 0.28748795390
0.00000000000 0.63982468843 0.36017528176
0.00000000000 0.50534725189 0.49465271831
0.00000000000 0.65467238426 0.34532764554
0.00000000000 0.65075755119 0.34924241900
0.00000000000 0.72108948231 0.27891048789
0.00000000000 0.69241547585 0.30758452415
0.00000000000 0.53314888477 0.46685117483
0.00000000000 0.71533477306 0.28466522694
0.00000000000 0.36596369743 0.63403624296
0.00000000000 0.70757079124 0.29242926836
0.00000000000 0.71288120747 0.28711879253
0.00000000000 0.71596789360 0.28403207660
0.00000000000 0.65538036823 0.34461963177
0.00000000000 0.41705307364 0.58294689655
0.00000000000 0.56866818666 0.43133181334
0.00000000000 0.72601348162 0.27398654819
1.00000000000 0.31963959336 0.68036037683
0.00000000000 0.30577564240 0.69422429800
0.00000000000 0.71519315243 0.28480681777
0.00000000000 0.69264703989 0.30735296011
0.00000000000 0.71576315165 0.28423687816
0.00000000000 0.70610368252 0.29389628768
0.00000000000 0.71745997667 0.28254008293
0.00000000000 0.69088625908 0.30911371112
0.00000000000 0.66775375605 0.33224624395
0.00000000000 0.71102851629 0.28897142410
0.00000000000 0.62241727114 0.37758275867
0.00000000000 0.69393146038 0.30606853962
0.00000000000 0.72070682049 0.27929311991
0.00000000000 0.69374239445 0.30625757575
0.00000000000 0.70973932743 0.29026067257
0.00000000000 0.71109503508 0.28890499473
0.00000000000 0.56327188015 0.43672809005
1.00000000000 0.35966819525 0.64033180475
0.00000000000 0.60399502516 0.39600497484
0.00000000000 0.59759145975 0.40240857005
0.00000000000 0.35196176171 0.64803826809
0.00000000000 0.29776310921 0.70223689079
0.00000000000 0.72541546822 0.27458453178
1.00000000000 0.63242721558 0.36757278442
0.00000000000 0.71038550138 0.28961449862
0.00000000000 0.70669645071 0.29330348969
0.00000000000 0.59273040295 0.40726959705
0.00000000000 0.72459554672 0.27540448308
1.00000000000 0.29165029526 0.70834970474
0.00000000000 0.30779874325 0.69220125675
0.00000000000 0.35168632865 0.64831364155
0.00000000000 0.66372632980 0.33627367020
0.00000000000 0.72234594822 0.27765405178
0.00000000000 0.58697402477 0.41302600503
0.00000000000 0.32195919752 0.67804086208
0.00000000000 0.70752602816 0.29247403145
0.00000000000 0.72831827402 0.27168175578
0.00000000000 0.58349859715 0.41650140285
1.00000000000 0.29887434840 0.70112562180
0.00000000000 0.71608847380 0.28391149640
0.00000000000 0.69155687094 0.30844312906
0.00000000000 0.37816417217 0.62183582783
0.00000000000 0.63039058447 0.36960941553
1.00000000000 0.29877477884 0.70122522116
0.00000000000 0.44869166613 0.55130833387
0.00000000000 0.30295136571 0.69704860449
0.00000000000 0.62813645601 0.37186348438
0.00000000000 0.70981943607 0.29018053412
0.00000000000 0.48538726568 0.51461267471
0.00000000000 0.72850579023 0.27149423957
0.00000000000 0.61036616564 0.38963380456
0.00000000000 0.71870207787 0.28129795194
1.00000000000 0.61457067728 0.38542938232
0.00000000000 0.40408265591 0.59591734409
0.00000000000 0.72862213850 0.27137786150
0.00000000000 0.69851303101 0.30148693919
0.00000000000 0.72898769379 0.27101230621
1.00000000000 0.71915292740 0.28084710240
0.00000000000 0.61411976814 0.38588020205
0.00000000000 0.32488366961 0.67511630058
0.00000000000 0.63161975145 0.36838024855
0.00000000000 0.71950203180 0.28049793839
0.00000000000 0.71436935663 0.28563058376
0.00000000000 0.40326377749 0.59673625231
0.00000000000 0.72449421883 0.27550578117
1.00000000000 0.72268766165 0.27731230855
0.00000000000 0.71325838566 0.28674161434
0.00000000000 0.70539975166 0.29460030794
0.00000000000 0.44045242667 0.55954760313
0.00000000000 0.37897914648 0.62102085352
0.00000000000 0.72280758619 0.27719241381
0.00000000000 0.69208276272 0.30791720748
1.00000000000 0.37503474951 0.62496525049
0.00000000000 0.47030502558 0.52969497442
0.00000000000 0.72659063339 0.27340933681
1.00000000000 0.31221422553 0.68778574467
0.00000000000 0.50590109825 0.49409887195
0.00000000000 0.72288972139 0.27711030841
0.00000000000 0.36276519299 0.63723480701
0.00000000000 0.58283716440 0.41716283560
0.00000000000 0.72186589241 0.27813407779
1.00000000000 0.42316591740 0.57683414221
0.00000000000 0.59397071600 0.40602925420
1.00000000000 0.32284915447 0.67715084553
0.00000000000 0.72099834681 0.27900162339
0.00000000000 0.67494463921 0.32505539060
0.00000000000 0.66640496254 0.33359506726
0.00000000000 0.40944784880 0.59055215120
0.00000000000 0.32422280312 0.67577719688
0.00000000000 0.47154548764 0.52845448256
0.00000000000 0.44401460886 0.55598545074
1.00000000000 0.42550474405 0.57449531555
1.00000000000 0.32131788135 0.67868208885
0.00000000000 0.71898549795 0.28101447225
0.00000000000 0.70914763212 0.29085233808
0.00000000000 0.71498268843 0.28501731157
0.00000000000 0.36817806959 0.63182199001
0.00000000000 0.67280358076 0.32719641924
0.00000000000 0.71951907873 0.28048092127
0.00000000000 0.71177953482 0.28822049499
0.00000000000 0.70825397968 0.29174607992
0.00000000000 0.70126837492 0.29873162508
0.00000000000 0.72002130747 0.27997872233
0.00000000000 0.64745634794 0.35254368186
0.00000000000 0.29816904664 0.70183098316
0.00000000000 0.64809864759 0.35190129280
1.00000000000 0.41333600879 0.58666396141
0.00000000000 0.36221879721 0.63778114319
0.00000000000 0.72234541178 0.27765458822
0.00000000000 0.35754108429 0.64245891571
0.00000000000 0.64238268137 0.35761737823
1.00000000000 0.49888250232 0.50111752748
1.00000000000 0.50679802895 0.49320194125
0.00000000000 0.65280944109 0.34719049931
0.00000000000 0.50899320841 0.49100676179
0.00000000000 0.71830070019 0.28169929981
1.00000000000 0.32906362414 0.67093640566
0.00000000000 0.71283024549 0.28716969490
0.00000000000 0.72336637974 0.27663365006
1.00000000000 0.35021108389 0.64978885651
0.00000000000 0.50157886744 0.49842107296
0.00000000000 0.32841885090 0.67158108950
0.00000000000 0.59449726343 0.40550273657
0.00000000000 0.58518922329 0.41481077671
0.00000000000 0.62066340446 0.37933659554
0.00000000000 0.71643459797 0.28356546164
1.00000000000 0.59852379560 0.40147620440
1.00000000000 0.29685497284 0.70314508677
1.00000000000 0.29843541980 0.70156461000
0.00000000000 0.72733211517 0.27266788483
0.00000000000 0.44266599417 0.55733400583
0.00000000000 0.69178169966 0.30821827054
0.00000000000 0.71625036001 0.28374961019
0.00000000000 0.72616147995 0.27383849025
0.00000000000 0.54594552517 0.45405450463
0.00000000000 0.72265869379 0.27734130621
0.00000000000 0.63713324070 0.36286678910
0.00000000000 0.72245866060 0.27754133940
1.00000000000 0.30673760176 0.69326239824
0.00000000000 0.34076818824 0.65923178196
0.00000000000 0.63900816441 0.36099180579
0.00000000000 0.67973345518 0.32026660442
0.00000000000 0.57637590170 0.42362409830
0.00000000000 0.63540363312 0.36459639668
0.00000000000 0.72506833076 0.27493163943
0.00000000000 0.50614386797 0.49385616183
1.00000000000 0.37748703361 0.62251293659
0.00000000000 0.72206676006 0.27793318033
1.00000000000 0.57856065035 0.42143934965
0.00000000000 0.69985246658 0.30014750361
0.00000000000 0.64156001806 0.35843992233
0.00000000000 0.70186918974 0.29813081026
1.00000000000 0.30603668094 0.69396334887
0.00000000000 0.72380429506 0.27619573474
0.00000000000 0.72081744671 0.27918261290
0.00000000000 0.65352654457 0.34647339582
0.00000000000 0.67709690332 0.32290303707
1.00000000000 0.31907692552 0.68092304468
1.00000000000 0.29779192805 0.70220810175
0.00000000000 0.70421385765 0.29578617215
0.00000000000 0.72655260563 0.27344739437
1.00000000000 0.37904930115 0.62095069885
0.00000000000 0.35698217154 0.64301776886
0.00000000000 0.65514856577 0.34485143423
0.00000000000 0.72336322069 0.27663677931
0.00000000000 0.72085469961 0.27914527059
0.00000000000 0.70408076048 0.29591929913
0.00000000000 0.55814886093 0.44185110927
1.00000000000 0.43830251694 0.56169748306
0.00000000000 0.47215783596 0.52784216404
0.00000000000 0.64114558697 0.35885441303
1.00000000000 0.30357608199 0.69642394781
0.00000000000 0.68050652742 0.31949350238
0.00000000000 0.71268278360 0.28731721640
0.00000000000 0.63542705774 0.36457294226
0.00000000000 0.30476787686 0.69523209333
0.00000000000 0.72228372097 0.27771627903
0.00000000000 0.72893512249 0.27106487751
0.00000000000 0.60672521591 0.39327481389
1.00000000000 0.31182333827 0.68817669153
0.00000000000 0.71632403135 0.28367596865
0.00000000000 0.62977868319 0.37022128701
0.00000000000 0.70656001568 0.29344004393
0.00000000000 0.39575335383 0.60424667597
0.00000000000 0.65537834167 0.34462171793
0.00000000000 0.69862014055 0.30137988925
0.00000000000 0.47169992328 0.52830004692
0.00000000000 0.32191622257 0.67808377743
1.00000000000 0.30429452658 0.69570547342
0.00000000000 0.68818831444 0.31181171536
0.00000000000 0.70598691702 0.29401305318
0.00000000000 0.68905693293 0.31094303727
0.00000000000 0.71622198820 0.28377804160
0.00000000000 0.72114449739 0.27885547280
0.00000000000 0.67961758375 0.32038247585
0.00000000000 0.50836825371 0.49163177609
1.00000000000 0.31419605017 0.68580394983
0.00000000000 0.71231687069 0.28768312931
0.00000000000 0.48459738493 0.51540261507
0.00000000000 0.39795058966 0.60204935074
0.00000000000 0.70789176226 0.29210826755
0.00000000000 0.36739331484 0.63260674477
0.00000000000 0.58251935244 0.41748070717
0.00000000000 0.60251641273 0.39748364687
0.00000000000 0.70456147194 0.29543855786
0.00000000000 0.72199285030 0.27800717950
1.00000000000 0.45053061843 0.54946941137
0.00000000000 0.71614015102 0.28385978937
0.00000000000 0.69887572527 0.30112427473
0.00000000000 0.72538715601 0.27461281419
0.00000000000 0.66161012650 0.33838984370
0.00000000000 0.71815204620 0.28184789419
0.00000000000 0.71285820007 0.28714182973
0.00000000000 0.53385323286 0.46614679694
1.00000000000 0.40476071835 0.59523928165
0.00000000000 0.61883008480 0.38116997480
0.00000000000 0.30872675776 0.69127321243
0.00000000000 0.64667826891 0.35332170129
0.00000000000 0.72592365742 0.27407640219
0.00000000000 0.69128817320 0.30871182680
1.00000000000 0.30515387654 0.69484615326
1.00000000000 0.67864531279 0.32135465741
0.00000000000 0.71541738510 0.28458264470
0.00000000000 0.64376211166 0.35623782873
0.00000000000 0.71635639668 0.28364360332
0.00000000000 0.71129471064 0.28870531917
0.00000000000 0.52064371109 0.47935634851
0.00000000000 0.65071827173 0.34928172827
0.00000000000 0.71349817514 0.28650182486
0.00000000000 0.48141580820 0.51858413219
0.00000000000 0.63250869513 0.36749130487
1.00000000000 0.32432672381 0.67567324638
0.00000000000 0.59593510628 0.40406483412
0.00000000000 0.70396643877 0.29603350163
0.00000000000 0.72682917118 0.27317082882
0.00000000000 0.57952237129 0.42047762871
0.00000000000 0.68330413103 0.31669583917
0.00000000000 0.68941760063 0.31058236957
0.00000000000 0.71909010410 0.28090992570
0.00000000000 0.69352173805 0.30647823215
0.00000000000 0.44770842791 0.55229157209
0.00000000000 0.53630012274 0.46369984746
0.00000000000 0.59483784437 0.40516218543
0.00000000000 0.69394820929 0.30605179071
0.00000000000 0.72102355957 0.27897644043
1.00000000000 0.63993579149 0.36006420851
0.00000000000 0.71478366852 0.28521630168
0.00000000000 0.67184519768 0.32815483212
0.00000000000 0.72695994377 0.27304005623
0.00000000000 0.72868597507 0.27131408453
0.00000000000 0.48925513029 0.51074486971
0.00000000000 0.72619616985 0.27380383015
0.00000000000 0.71933525801 0.28066477180
1.00000000000 0.33588352799 0.66411650181
0.00000000000 0.33791434765 0.66208565235
0.00000000000 0.70242601633 0.29757398367
0.00000000000 0.67153745890 0.32846260071
0.00000000000 0.70250636339 0.29749363661
0.00000000000 0.40804868937 0.59195131063
1.00000000000 0.37953948975 0.62046051025
0.00000000000 0.72668695450 0.27331307530
0.00000000000 0.64638125896 0.35361874104
0.00000000000 0.58269214630 0.41730785370
1.00000000000 0.42763048410 0.57236945629
0.00000000000 0.67832982540 0.32167020440
1.00000000000 0.33720195293 0.66279804707
0.00000000000 0.66757214069 0.33242785931
0.00000000000 0.72564542294 0.27435451746
0.00000000000 0.70474100113 0.29525902867
0.00000000000 0.71433627605 0.28566369414
0.00000000000 0.62712430954 0.37287572026
0.00000000000 0.33072531223 0.66927462816
0.00000000000 0.72824764252 0.27175235748
0.00000000000 0.64542388916 0.35457605124
0.00000000000 0.67808002234 0.32191994786
0.00000000000 0.72360527515 0.27639472485
0.00000000000 0.43537500501 0.56462496519
0.00000000000 0.62470364571 0.37529635429
0.00000000000 0.67960256338 0.32039749622
0.00000000000 0.67522120476 0.32477873564
1.00000000000 0.32164657116 0.67835342884
0.00000000000 0.71285015345 0.28714987636
0.00000000000 0.72858953476 0.27141043544
0.00000000000 0.71751004457 0.28248998523
0.00000000000 0.39591950178 0.60408049822
0.00000000000 0.71831125021 0.28168880939
0.00000000000 0.70144397020 0.29855605960
0.00000000000 0.71537494659 0.28462505341
0.00000000000 0.46819838881 0.53180164099
0.00000000000 0.67787408829 0.32212588191
1.00000000000 0.68367648125 0.31632351875
0.00000000000 0.56291186810 0.43708816171
0.00000000000 0.71061581373 0.28938418627
0.00000000000 0.64907610416 0.35092386603
0.00000000000 0.31363219023 0.68636786938
0.00000000000 0.48032343388 0.51967650652
0.00000000000 0.50531286001 0.49468716979
0.00000000000 0.69335258007 0.30664741993
0.00000000000 0.69586819410 0.30413180590
0.00000000000 0.72006994486 0.27993005514
0.00000000000 0.71742987633 0.28257012367
0.00000000000 0.71675157547 0.28324845433
1.00000000000 0.29336684942 0.70663321018
1.00000000000 0.34884306788 0.65115690231
0.00000000000 0.50666546822 0.49333456159
1.00000000000 0.30936148763 0.69063848257
0.00000000000 0.69349908829 0.30650088191
0.00000000000 0.72701019049 0.27298980951
0.00000000000 0.68772190809 0.31227809191
0.00000000000 0.69166588783 0.30833408237
0.00000000000 0.32552543283 0.67447453737
0.00000000000 0.67246776819 0.32753226161
0.00000000000 0.61565232277 0.38434761763
0.00000000000 0.54838591814 0.45161411166
0.00000000000 0.71827661991 0.28172340989
0.00000000000 0.71468120813 0.28531882167
0.00000000000 0.59216874838 0.40783128142
0.00000000000 0.59344792366 0.40655210614
0.00000000000 0.68066155910 0.31933838129
0.00000000000 0.72098755836 0.27901250124
1.00000000000 0.30782127380 0.69217872620
0.00000000000 0.57432144880 0.42567858100
0.00000000000 0.46285754442 0.53714239597
0.00000000000 0.71090149879 0.28909847140
1.00000000000 0.43540245295 0.56459748745
0.00000000000 0.36552825570 0.63447171450
0.00000000000 0.72316247225 0.27683752775
1.00000000000 0.35450056195 0.64549946785
0.00000000000 0.63666784763 0.36333212256
0.00000000000 0.44701060653 0.55298942327
0.00000000000 0.67334729433 0.32665267587
1.00000000000 0.47310104966 0.52689892054
0.00000000000 0.72717851400 0.27282145619
0.00000000000 0.72236615419 0.27763378620
0.00000000000 0.72636073828 0.27363926172
0.00000000000 0.42053377628 0.57946622372
0.00000000000 0.62142747641 0.37857252359
1.00000000000 0.35469791293 0.64530205727
0.00000000000 0.70046341419 0.29953658581
0.00000000000 0.72368574142 0.27631428838
0.00000000000 0.56336849928 0.43663144112
0.00000000000 0.72502356768 0.27497640252
0.00000000000 0.39282608032 0.60717391968
0.00000000000 0.66600102186 0.33399900794
0.00000000000 0.72049182653 0.27950817347
0.00000000000 0.51697409153 0.48302590847
0.00000000000 0.39223390818 0.60776609182
0.00000000000 0.64701473713 0.35298523307
0.00000000000 0.32759183645 0.67240816355
0.00000000000 0.54662019014 0.45337980986
0.00000000000 0.72771090269 0.27228909731
1.00000000000 0.45110887289 0.54889106750
0.00000000000 0.71603089571 0.28396910429
0.00000000000 0.69793510437 0.30206486583
0.00000000000 0.68456977606 0.31543022394
0.00000000000 0.72492855787 0.27507147193
0.00000000000 0.71067303419 0.28932699561
0.00000000000 0.72059392929 0.27940604091
0.00000000000 0.68554240465 0.31445762515
0.00000000000 0.71027243137 0.28972756863
0.00000000000 0.49809339643 0.50190663338
0.00000000000 0.72365468740 0.27634528279
0.00000000000 0.31888884306 0.68111115694
0.00000000000 0.72294104099 0.27705892920
0.00000000000 0.72373127937 0.27626872063
0.00000000000 0.69231116772 0.30768883228
0.00000000000 0.69544744492 0.30455255508
1.00000000000 0.70280843973 0.29719150066
0.00000000000 0.64558088779 0.35441914201
0.00000000000 0.67796480656 0.32203513384
0.00000000000 0.55038523674 0.44961476326
0.00000000000 0.32430037856 0.67569959164
1.00000000000 0.29509544373 0.70490455627
1.00000000000 0.34975463152 0.65024542809
0.00000000000 0.44365951419 0.55634045601
0.00000000000 0.69839996099 0.30160003901
0.00000000000 0.71680289507 0.28319716454
0.00000000000 0.70130121708 0.29869881272
0.00000000000 0.32296326756 0.67703670263
0.00000000000 0.71892225742 0.28107771277
0.00000000000 0.72014248371 0.27985751629
0.00000000000 0.43932223320 0.56067776680
0.00000000000 0.72644412518 0.27355584502
0.00000000000 0.45728611946 0.54271388054
0.00000000000 0.72480905056 0.27519097924
0.00000000000 0.38315179944 0.61684823036
1.00000000000 0.36493822932 0.63506174088
0.00000000000 0.69979608059 0.30020388961
0.00000000000 0.29582667351 0.70417326689
0.00000000000 0.71681672335 0.28318327665
1.00000000000 0.66918510199 0.33081486821
0.00000000000 0.71499061584 0.28500941396
1.00000000000 0.31525173783 0.68474829197
0.00000000000 0.72365182638 0.27634817362
0.00000000000 0.60261017084 0.39738988876
0.00000000000 0.50414782763 0.49585217237
0.00000000000 0.34681144357 0.65318852663
0.00000000000 0.46943020821 0.53056979179
0.00000000000 0.68593907356 0.31406095624
0.00000000000 0.67289870977 0.32710123062
0.00000000000 0.69361031055 0.30638965964
0.00000000000 0.65653008223 0.34346997738
0.00000000000 0.71431499720 0.28568500280
0.00000000000 0.72291803360 0.27708196640
0.00000000000 0.37845641375 0.62154358625
0.00000000000 0.52465420961 0.47534576058
0.00000000000 0.71673703194 0.28326293826
0.00000000000 0.71074777842 0.28925219178
0.00000000000 0.72436171770 0.27563825250
0.00000000000 0.72023284435 0.27976721525
0.00000000000 0.51408296824 0.48591706157
0.00000000000 0.51064962149 0.48935040832
0.00000000000 0.71687746048 0.28312256932
1.00000000000 0.31088146567 0.68911850452
0.00000000000 0.72520864010 0.27479133010
0.00000000000 0.69857311249 0.30142688751
0.00000000000 0.54330945015 0.45669054985
0.00000000000 0.70588278770 0.29411718249
1.00000000000 0.34731027484 0.65268975496
0.00000000000 0.69665616751 0.30334380269
0.00000000000 0.72232693434 0.27767309546
0.00000000000 0.50801348686 0.49198654294
0.00000000000 0.70813924074 0.29186078906
0.00000000000 0.69277089834 0.30722910166
0.00000000000 0.65186023712 0.34813973308
1.00000000000 0.35188847780 0.64811146259
1.00000000000 0.71704846621 0.28295156360
0.00000000000 0.72743910551 0.27256092429
0.00000000000 0.49340549111 0.50659453869
0.00000000000 0.72179132700 0.27820873260
0.00000000000 0.70250815153 0.29749178886
0.00000000000 0.70579445362 0.29420551658
0.00000000000 0.50703293085 0.49296706915
0.00000000000 0.69516724348 0.30483275652
1.00000000000 0.31223091483 0.68776905537
0.00000000000 0.72871202230 0.27128800750
0.00000000000 0.70855373144 0.29144626856
0.00000000000 0.36634060740 0.63365942240
0.00000000000 0.31058979034 0.68941020966
0.00000000000 0.59058821201 0.40941178799
0.00000000000 0.51615387201 0.48384609818
1.00000000000 0.29843607545 0.70156389475
1.00000000000 0.44548776746 0.55451226234
0.00000000000 0.72914600372 0.27085402608
0.00000000000 0.72453236580 0.27546769381
0.00000000000 0.71586626768 0.28413373232
0.00000000000 0.72129440308 0.27870562673
0.00000000000 0.39217862487 0.60782134533
0.00000000000 0.72283858061 0.27716147900
0.00000000000 0.71137446165 0.28862556815
0.00000000000 0.67491203547 0.32508796453
0.00000000000 0.49188932776 0.50811070204
0.00000000000 0.71912765503 0.28087231517
0.00000000000 0.44401553273 0.55598443747
0.00000000000 0.67434656620 0.32565346360
0.00000000000 0.44184744358 0.55815255642
0.00000000000 0.72930645943 0.27069360018
0.00000000000 0.72515267134 0.27484738827
0.00000000000 0.43452471495 0.56547528505
0.00000000000 0.36838546395 0.63161456585
0.00000000000 0.68233782053 0.31766220927
1.00000000000 0.37487772107 0.62512224913
0.00000000000 0.34679928422 0.65320074558
0.00000000000 0.66460657120 0.33539348841
0.00000000000 0.70329594612 0.29670405388
0.00000000000 0.72530883551 0.27469113469
0.00000000000 0.68085944653 0.31914049387
0.00000000000 0.72222274542 0.27777725458
0.00000000000 0.72233563662 0.27766439319
0.00000000000 0.72574138641 0.27425861359
1.00000000000 0.34300541878 0.65699458122
0.00000000000 0.42827272415 0.57172727585
1.00000000000 0.29688695073 0.70311301947
0.00000000000 0.68410974741 0.31589022279
1.00000000000 0.67951190472 0.32048809528
0.00000000000 0.71615338326 0.28384658694
0.00000000000 0.32867318392 0.67132675648
0.00000000000 0.35347342491 0.64652651548
0.00000000000 0.60014796257 0.39985197783
0.00000000000 0.52605712414 0.47394290566
0.00000000000 0.46273684502 0.53726315498
0.00000000000 0.43535730243 0.56464266777
1.00000000000 0.29722696543 0.70277303457
0.00000000000 0.72431433201 0.27568563819
0.00000000000 0.64944952726 0.35055047274
0.00000000000 0.50033116341 0.49966886640
0.00000000000 0.30558440089 0.69441556931
0.00000000000 0.67952042818 0.32047963142
0.00000000000 0.59460383654 0.40539616346
1.00000000000 0.40740358829 0.59259641171
0.00000000000 0.37387973070 0.62612026930
0.00000000000 0.37050896883 0.62949103117
0.00000000000 0.72419536114 0.27580463886
0.00000000000 0.66304159164 0.33695840836
0.00000000000 0.36921778321 0.63078224659
0.00000000000 0.70764046907 0.29235956073
0.00000000000 0.54740899801 0.45259097219
0.00000000000 0.50714951754 0.49285048246
0.00000000000 0.55500221252 0.44499775767
0.00000000000 0.64570772648 0.35429227352
0.00000000000 0.50051790476 0.49948206544
0.00000000000 0.64304113388 0.35695886612
0.00000000000 0.62122219801 0.37877777219
0.00000000000 0.33065724373 0.66934269667
1.00000000000 0.47530847788 0.52469146252
0.00000000000 0.32194522023 0.67805480957
0.00000000000 0.71979457140 0.28020545840
0.00000000000 0.71624553204 0.28375446796
0.00000000000 0.72109389305 0.27890607715
0.00000000000 0.72168946266 0.27831053734
0.00000000000 0.72682672739 0.27317330241
0.00000000000 0.71624678373 0.28375324607
0.00000000000 0.72744506598 0.27255487442
0.00000000000 0.72816830873 0.27183169127
1.00000000000 0.44134369493 0.55865633488
0.00000000000 0.70293694735 0.29706299305
0.00000000000 0.72380304337 0.27619698644
0.00000000000 0.64976453781 0.35023546219
0.00000000000 0.37285390496 0.62714606524
0.00000000000 0.68932861090 0.31067135930
1.00000000000 0.33233687282 0.66766315699
0.00000000000 0.70727485418 0.29272508621
0.00000000000 0.46755373478 0.53244626522
0.00000000000 0.45210301876 0.54789704084
0.00000000000 0.71676212549 0.28323787451
0.00000000000 0.72783744335 0.27216255665
0.00000000000 0.72216969728 0.27783030272
0.00000000000 0.31767597795 0.68232399225
0.00000000000 0.40161678195 0.59838318825
0.00000000000 0.68203306198 0.31796699762
0.00000000000 0.70881891251 0.29118114710
0.00000000000 0.51954090595 0.48045915365
0.00000000000 0.41088792682 0.58911204338
0.00000000000 0.64866489172 0.35133507848
0.00000000000 0.63553172350 0.36446830630
0.00000000000 0.46363338828 0.53636658192
0.00000000000 0.63462728262 0.36537271738
0.00000000000 0.72589981556 0.27410018444
0.00000000000 0.69261753559 0.30738246441
0.00000000000 0.69882214069 0.30117779970
0.00000000000 0.66697579622 0.33302417397
0.00000000000 0.34983986616 0.65016013384
0.00000000000 0.72044789791 0.27955210209
1.00000000000 0.32574918866 0.67425084114
0.00000000000 0.71283149719 0.28716847301
1.00000000000 0.49856951833 0.50143045187
0.00000000000 0.66848927736 0.33151069283
0.00000000000 0.49156704545 0.50843298435
0.00000000000 0.71804845333 0.28195157647
0.00000000000 0.71649962664 0.28350037336
0.00000000000 0.57830339670 0.42169657350
0.00000000000 0.32872372866 0.67127627134
1.00000000000 0.40113970637 0.59886026382
0.00000000000 0.50173205137 0.49826791883
0.00000000000 0.72808700800 0.27191302180
0.00000000000 0.44037127495 0.55962866545
0.00000000000 0.65253460407 0.34746536613
0.00000000000 0.71562647820 0.28437352180
0.00000000000 0.72879976034 0.27120018005
0.00000000000 0.65800660849 0.34199336171
1.00000000000 0.31978634000 0.68021363020
0.00000000000 0.72676056623 0.27323937416
0.00000000000 0.56901228428 0.43098771572
0.00000000000 0.69701975584 0.30298024416
0.00000000000 0.68495059013 0.31504935026
0.00000000000 0.52234447002 0.47765547037
0.00000000000 0.72655320168 0.27344679832
0.00000000000 0.50154858828 0.49845141172
0.00000000000 0.67580783367 0.32419219613
0.00000000000 0.72708839178 0.27291157842
0.00000000000 0.51993530989 0.48006466031
0.00000000000 0.29800114036 0.70199882984
0.00000000000 0.71751886606 0.28248116374
0.00000000000 0.70342075825 0.29657918215
0.00000000000 0.71875619888 0.28124374151
0.00000000000 0.72449022532 0.27550977468
0.00000000000 0.71649342775 0.28350663185
0.00000000000 0.67595773935 0.32404226065
0.00000000000 0.63761323690 0.36238679290
0.00000000000 0.70452189445 0.29547816515
0.00000000000 0.66534286737 0.33465719223
0.00000000000 0.31535670161 0.68464332819
1.00000000000 0.37183403969 0.62816590071
0.00000000000 0.46337139606 0.53662860394
0.00000000000 0.72440487146 0.27559509873
0.00000000000 0.72156840563 0.27843153477
1.00000000000 0.30400758982 0.69599241018
0.00000000000 0.42315512896 0.57684481144
0.00000000000 0.72591799498 0.27408203483
0.00000000000 0.72350066900 0.27649936080
0.00000000000 0.71494817734 0.28505179286
1.00000000000 0.29254403710 0.70745593309
0.00000000000 0.71118134260 0.28881865740
0.00000000000 0.47507959604 0.52492040396
0.00000000000 0.72752201557 0.27247804403
0.00000000000 0.72271639109 0.27728360891
0.00000000000 0.49937489629 0.50062513351
0.00000000000 0.68823063374 0.31176930666
0.00000000000 0.72947436571 0.27052560449
0.00000000000 0.70213609934 0.29786387086
0.00000000000 0.57275462151 0.42724531889
0.00000000000 0.32581901550 0.67418098450
0.00000000000 0.32460537553 0.67539465427
0.00000000000 0.55379348993 0.44620648026
0.00000000000 0.70101207495 0.29898792505
0.00000000000 0.55284196138 0.44715806842
0.00000000000 0.72928297520 0.27071699500
0.00000000000 0.72788107395 0.27211889625
0.00000000000 0.70082956553 0.29917046428
0.00000000000 0.65891718864 0.34108281136
0.00000000000 0.72071456909 0.27928546071
0.00000000000 0.43838486075 0.56161510944
0.00000000000 0.72799223661 0.27200776339
0.00000000000 0.56498014927 0.43501985073
0.00000000000 0.71830022335 0.28169977665
0.00000000000 0.66356611252 0.33643385768
0.00000000000 0.72393828630 0.27606171370
0.00000000000 0.72617667913 0.27382332087
0.00000000000 0.50245910883 0.49754092097
0.00000000000 0.43124315143 0.56875687838
0.00000000000 0.72604352236 0.27395650744
0.00000000000 0.50715041161 0.49284958839
0.00000000000 0.42886394262 0.57113605738
0.00000000000 0.42267999053 0.57731997967
0.00000000000 0.71386647224 0.28613355756
1.00000000000 0.66127264500 0.33872735500
0.00000000000 0.51230049133 0.48769947886
0.00000000000 0.34859934449 0.65140062571
0.00000000000 0.69422668219 0.30577331781
1.00000000000 0.30000478029 0.69999521971
0.00000000000 0.53427535295 0.46572461724
0.00000000000 0.70635992289 0.29364007711
1.00000000000 0.41804015636 0.58195984364
0.00000000000 0.68449443579 0.31550553441
0.00000000000 0.72346132994 0.27653867006
1.00000000000 0.42989552021 0.57010442019
0.00000000000 0.72416013479 0.27583986521
0.00000000000 0.47794473171 0.52205532789
0.00000000000 0.69801890850 0.30198109150
0.00000000000 0.30003273487 0.69996726513
0.00000000000 0.68345159292 0.31654846668
0.00000000000 0.71283358335 0.28716638684
1.00000000000 0.29576909542 0.70423084497
0.00000000000 0.71776771545 0.28223231435
1.00000000000 0.64653915167 0.35346087813
0.00000000000 0.69893217087 0.30106779933
0.00000000000 0.72601181269 0.27398815751
0.00000000000 0.59802621603 0.40197375417
0.00000000000 0.72815412283 0.27184581757
0.00000000000 0.53399741650 0.46600255370
0.00000000000 0.69912648201 0.30087354779
0.00000000000 0.43830549717 0.56169444323
1.00000000000 0.33882647753 0.66117352247
0.00000000000 0.31451714039 0.68548285961
0.00000000000 0.60584861040 0.39415141940
0.00000000000 0.52941066027 0.47058930993
0.00000000000 0.71942222118 0.28057777882
0.00000000000 0.60927474499 0.39072522521
0.00000000000 0.71834117174 0.28165882826
0.00000000000 0.70550912619 0.29449081421
0.00000000000 0.66011261940 0.33988741040
0.00000000000 0.31653770804 0.68346232176
0.00000000000 0.53583598137 0.46416401863
0.00000000000 0.72506356239 0.27493640780
0.00000000000 0.60787403584 0.39212593436
0.00000000000 0.55738437176 0.44261565804
0.00000000000 0.72154080868 0.27845919132
0.00000000000 0.58963388205 0.41036614776
1.00000000000 0.38676053286 0.61323946714
1.00000000000 0.62426441908 0.37573561072
0.00000000000 0.71240633726 0.28759366274
0.00000000000 0.59196490049 0.40803512931
0.00000000000 0.53637599945 0.46362403035
1.00000000000 0.43454858661 0.56545144320
0.00000000000 0.70957475901 0.29042521119
0.00000000000 0.69436073303 0.30563932657
1.00000000000 0.47414723039 0.52585273981
0.00000000000 0.72102206945 0.27897793055
0.00000000000 0.58299404383 0.41700598598
0.00000000000 0.64052623510 0.35947382450
0.00000000000 0.35558763146 0.64441233873
0.00000000000 0.70836102962 0.29163897038
1.00000000000 0.36719423532 0.63280576468
0.00000000000 0.35044896603 0.64955103397
0.00000000000 0.72176760435 0.27823242545
0.00000000000 0.71092402935 0.28907597065
0.00000000000 0.33938413858 0.66061580181
0.00000000000 0.56584995985 0.43415004015
0.00000000000 0.72594034672 0.27405965328
0.00000000000 0.65468329191 0.34531673789
0.00000000000 0.65462642908 0.34537360072
0.00000000000 0.44749382138 0.55250614882
0.00000000000 0.71528965235 0.28471031785
0.00000000000 0.66747868061 0.33252125978
0.00000000000 0.64640676975 0.35359328985
0.00000000000 0.43754014373 0.56245988607
0.00000000000 0.70129996538 0.29870003462
0.00000000000 0.72843831778 0.27156168222
0.00000000000 0.71892511845 0.28107491136
0.00000000000 0.32181900740 0.67818099260
0.00000000000 0.63931572437 0.36068427563
0.00000000000 0.56526887417 0.43473112583
0.00000000000 0.63449430466 0.36550569534
0.00000000000 0.70717066526 0.29282939434
1.00000000000 0.32954415679 0.67045581341
0.00000000000 0.53792208433 0.46207791567
0.00000000000 0.70066648722 0.29933354259
0.00000000000 0.69440937042 0.30559059978
0.00000000000 0.70333188772 0.29666811228
1.00000000000 0.29639512300 0.70360487700
0.00000000000 0.67688691616 0.32311311364
0.00000000000 0.59418076277 0.40581929684
0.00000000000 0.65287607908 0.34712395072
1.00000000000 0.70406311750 0.29593685269
0.00000000000 0.66112482548 0.33887514472
0.00000000000 0.72129243612 0.27870750427
0.00000000000 0.65486299992 0.34513702989
0.00000000000 0.71285516024 0.28714486957
0.00000000000 0.72781831026 0.27218165994
0.00000000000 0.71765881777 0.28234118223
0.00000000000 0.72781395912 0.27218607068
0.00000000000 0.59058499336 0.40941494703
0.00000000000 0.69076615572 0.30923387408
0.00000000000 0.72313028574 0.27686965466
1.00000000000 0.46638667583 0.53361332417
0.00000000000 0.70832574368 0.29167425632
0.00000000000 0.68714332581 0.31285667419
0.00000000000 0.43318352103 0.56681650877
0.00000000000 0.34135162830 0.65864843130
0.00000000000 0.35434573889 0.64565426111
1.00000000000 0.30194932222 0.69805073738
0.00000000000 0.72396939993 0.27603060007
0.00000000000 0.70018357038 0.29981639981
1.00000000000 0.32759729028 0.67240273952
0.00000000000 0.61671257019 0.38328740001
0.00000000000 0.46126636863 0.53873366117
0.00000000000 0.72502076626 0.27497923374
0.00000000000 0.54087722301 0.45912277699
0.00000000000 0.72146093845 0.27853909135
0.00000000000 0.32110598683 0.67889404297
0.00000000000 0.72704452276 0.27295547724
0.00000000000 0.72174608707 0.27825394273
0.00000000000 0.57233184576 0.42766818404
0.00000000000 0.64487695694 0.35512304306
0.00000000000 0.41527780890 0.58472216129
0.00000000000 0.71238112450 0.28761884570
0.00000000000 0.72040259838 0.27959737182
0.00000000000 0.71834844351 0.28165155649
1.00000000000 0.34847459197 0.65152543783
0.00000000000 0.41419866681 0.58580130339
0.00000000000 0.72300517559 0.27699482441
0.00000000000 0.72673058510 0.27326947451
1.00000000000 0.37032422423 0.62967580557
0.00000000000 0.70527416468 0.29472580552
0.00000000000 0.51097357273 0.48902645707
0.00000000000 0.41563224792 0.58436769247
0.00000000000 0.69599568844 0.30400431156
0.00000000000 0.61857491732 0.38142505288
0.00000000000 0.72840076685 0.27159920335
0.00000000000 0.71697229147 0.28302770853
0.00000000000 0.65935468674 0.34064534307
0.00000000000 0.72586679459 0.27413323522
0.00000000000 0.65794831514 0.34205165505
0.00000000000 0.71781128645 0.28218871355
0.00000000000 0.56327718496 0.43672284484
0.00000000000 0.70821630955 0.29178366065
0.00000000000 0.46156394482 0.53843605518
0.00000000000 0.38465452194 0.61534541845
0.00000000000 0.71989554167 0.28010448813
0.00000000000 0.36715382338 0.63284617662
0.00000000000 0.72613215446 0.27386790514
0.00000000000 0.49205121398 0.50794875622
0.00000000000 0.63467329741 0.36532673240
0.00000000000 0.72229373455 0.27770626545
0.00000000000 0.68299663067 0.31700336933
0.00000000000 0.71595561504 0.28404438496
0.00000000000 0.72492879629 0.27507117391
0.00000000000 0.70853334665 0.29146662354
0.00000000000 0.68187987804 0.31812012196
0.00000000000 0.44029003382 0.55970996618
0.00000000000 0.67342048883 0.32657948136
0.00000000000 0.33088016510 0.66911983490
0.00000000000 0.71871870756 0.28128132224
0.00000000000 0.60059916973 0.39940086007
0.00000000000 0.71796733141 0.28203272820
0.00000000000 0.63877034187 0.36122965813
0.00000000000 0.56338262558 0.43661743402
1.00000000000 0.30779087543 0.69220912457
0.00000000000 0.63469088078 0.36530911922
0.00000000000 0.35700672865 0.64299321175
0.00000000000 0.69863665104 0.30136331916
0.00000000000 0.48631298542 0.51368695498
0.00000000000 0.69397294521 0.30602708459
0.00000000000 0.40327677131 0.59672319889
1.00000000000 0.32413598895 0.67586404085
1.00000000000 0.32852068543 0.67147928476
1.00000000000 0.34675860405 0.65324133635
0.00000000000 0.40477588773 0.59522414207
0.00000000000 0.62670665979 0.37329337001
0.00000000000 0.71205264330 0.28794735670
0.00000000000 0.63383680582 0.36616322398
0.00000000000 0.71968561411 0.28031435609
0.00000000000 0.36742120981 0.63257879019
1.00000000000 0.72036981583 0.27963015437
0.00000000000 0.52734947205 0.47265049815
0.00000000000 0.71300816536 0.28699189425
0.00000000000 0.72689568996 0.27310433984
0.00000000000 0.51624858379 0.48375141621
0.00000000000 0.67035675049 0.32964321971
0.00000000000 0.29757601023 0.70242398977
0.00000000000 0.70495712757 0.29504287243
0.00000000000 0.72702425718 0.27297571301
1.00000000000 0.45448443294 0.54551559687
0.00000000000 0.71582496166 0.28417503834
1.00000000000 0.44099849463 0.55900150537
1.00000000000 0.38280892372 0.61719107628
0.00000000000 0.55082321167 0.44917678833
0.00000000000 0.71013331413 0.28986671567
0.00000000000 0.72500652075 0.27499350905
1.00000000000 0.48243278265 0.51756721735
0.00000000000 0.69852238894 0.30147761106
0.00000000000 0.53116714954 0.46883282065
0.00000000000 0.60606300831 0.39393702149
0.00000000000 0.34129112959 0.65870893002
0.00000000000 0.71098613739 0.28901389241
0.00000000000 0.46609684825 0.53390318155
0.00000000000 0.72385376692 0.27614623308
0.00000000000 0.50259119272 0.49740883708
0.00000000000 0.70344400406 0.29655596614
0.00000000000 0.58923774958 0.41076228023
0.00000000000 0.34136390686 0.65863609314
0.00000000000 0.44669398665 0.55330598354
0.00000000000 0.72065758705 0.27934238315
0.00000000000 0.72853106260 0.27146893740
0.00000000000 0.58884310722 0.41115695238
0.00000000000 0.71844738722 0.28155261278
1.00000000000 0.46584862471 0.53415137529
0.00000000000 0.70798939466 0.29201066494
1.00000000000 0.29735672474 0.70264327526
0.00000000000 0.58128881454 0.41871121526
0.00000000000 0.64888972044 0.35111027956
0.00000000000 0.44604447484 0.55395549536
0.00000000000 0.71290785074 0.28709211946
0.00000000000 0.72959899902 0.27040100098
0.00000000000 0.65026605129 0.34973394871
0.00000000000 0.64397823811 0.35602176189
0.00000000000 0.44863447547 0.55136555433
0.00000000000 0.70975768566 0.29024237394
0.00000000000 0.65955907106 0.34044092894
0.00000000000 0.71877485514 0.28122514486
0.00000000000 0.53933602571 0.46066394448
1.00000000000 0.31574666500 0.68425333500
0.00000000000 0.71234065294 0.28765937686
0.00000000000 0.68665921688 0.31334081292
0.00000000000 0.72406804562 0.27593195438
0.00000000000 0.70402127504 0.29597872496
0.00000000000 0.41750872135 0.58249127865
0.00000000000 0.69636130333 0.30363866687
0.00000000000 0.69910776615 0.30089223385
0.00000000000 0.38844311237 0.61155688763
0.00000000000 0.72779822350 0.27220174670
0.00000000000 0.65512496233 0.34487497807
1.00000000000 0.31186571717 0.68813431263
0.00000000000 0.47123965621 0.52876031399
0.00000000000 0.71683973074 0.28316029906
0.00000000000 0.66005742550 0.33994260430
0.00000000000 0.72334706783 0.27665299177
0.00000000000 0.68089312315 0.31910687685
1.00000000000 0.45185855031 0.54814141989
1.00000000000 0.44218009710 0.55781990290
1.00000000000 0.34678784013 0.65321213007
0.00000000000 0.58330917358 0.41669085622
0.00000000000 0.72006160021 0.27993839979
0.00000000000 0.72635203600 0.27364793420
0.00000000000 0.72660726309 0.27339270711
0.00000000000 0.67637491226 0.32362508774
0.00000000000 0.70404720306 0.29595273733
0.00000000000 0.65827459097 0.34172543883
0.00000000000 0.69057971239 0.30942025781
0.00000000000 0.71812599897 0.28187403083
0.00000000000 0.37803730369 0.62196272612
0.00000000000 0.42277857661 0.57722145319
0.00000000000 0.71349257231 0.28650742769
0.00000000000 0.66151767969 0.33848235011
0.00000000000 0.70530027151 0.29469972849
0.00000000000 0.62636977434 0.37363028526
1.00000000000 0.29837048054 0.70162951946
1.00000000000 0.38057368994 0.61942631006
0.00000000000 0.71041947603 0.28958055377
1.00000000000 0.36942481995 0.63057518005
0.00000000000 0.71722704172 0.28277295828
0.00000000000 0.59847128391 0.40152868629
0.00000000000 0.70704555511 0.29295438528
1.00000000000 0.49917694926 0.50082308054
1.00000000000 0.72534000874 0.27465993166
0.00000000000 0.70331299305 0.29668706656
0.00000000000 0.68037635088 0.31962367892
0.00000000000 0.35445663333 0.64554333687
0.00000000000 0.34887960553 0.65112036467
0.00000000000 0.72946703434 0.27053302526
0.00000000000 0.72721081972 0.27278918028
0.00000000000 0.71737211943 0.28262788057
1.00000000000 0.31199330091 0.68800663948
0.00000000000 0.72746467590 0.27253535390
0.00000000000 0.72942703962 0.27057299018
0.00000000000 0.61343640089 0.38656362891
1.00000000000 0.30619010329 0.69380986691
1.00000000000 0.47972318530 0.52027684450
0.00000000000 0.72379910946 0.27620089054
0.00000000000 0.71466636658 0.28533363342
0.00000000000 0.69016718864 0.30983284116
1.00000000000 0.31853646040 0.68146353960
1.00000000000 0.31860798597 0.68139207363
0.00000000000 0.54276913404 0.45723083615
0.00000000000 0.72535717487 0.27464279532
0.00000000000 0.43194019794 0.56805980206
0.00000000000 0.56078010798 0.43921989202
0.00000000000 0.69750094414 0.30249905586
0.00000000000 0.72126644850 0.27873352170
0.00000000000 0.71369904280 0.28630092740
0.00000000000 0.42143043876 0.57856953144
1.00000000000 0.70538169146 0.29461830854
1.00000000000 0.30320164561 0.69679838419
0.00000000000 0.72233760357 0.27766233683
0.00000000000 0.71882176399 0.28117829561
0.00000000000 0.72619128227 0.27380874753
0.00000000000 0.34702250361 0.65297752619
0.00000000000 0.72564405203 0.27435597777
1.00000000000 0.70120644569 0.29879352450
0.00000000000 0.36700111628 0.63299888372
0.00000000000 0.72320914268 0.27679079771
0.00000000000 0.70900559425 0.29099443555
0.00000000000 0.56721901894 0.43278101087
0.00000000000 0.71235454082 0.28764545918
0.00000000000 0.70126575232 0.29873427749
0.00000000000 0.64473509789 0.35526487231
1.00000000000 0.37658596039 0.62341403961
0.00000000000 0.62549704313 0.37450301647
0.00000000000 0.72802901268 0.27197098732
0.00000000000 0.50681138039 0.49318861961
0.00000000000 0.69143813848 0.30856183171
1.00000000000 0.32268553972 0.67731446028
0.00000000000 0.71535426378 0.28464576602
1.00000000000 0.31953522563 0.68046480417
1.00000000000 0.29797631502 0.70202374458
0.00000000000 0.39058107138 0.60941892862
0.00000000000 0.71414774656 0.28585228324
1.00000000000 0.61799979210 0.38200023770
0.00000000000 0.58016508818 0.41983488202
0.00000000000 0.70873105526 0.29126897454
1.00000000000 0.64264219999 0.35735780001
0.00000000000 0.44855296612 0.55144703388
0.00000000000 0.72501677275 0.27498316765
0.00000000000 0.72620028257 0.27379974723
0.00000000000 0.69851523638 0.30148479342
0.00000000000 0.55090856552 0.44909137487
0.00000000000 0.72399008274 0.27600994706
0.00000000000 0.72470211983 0.27529790998
0.00000000000 0.72220343351 0.27779653668
1.00000000000 0.33664652705 0.66335350275
0.00000000000 0.68484550714 0.31515452266
0.00000000000 0.69039911032 0.30960088968
0.00000000000 0.57063502073 0.42936497927
0.00000000000 0.72817903757 0.27182090282
0.00000000000 0.71435171366 0.28564828634
0.00000000000 0.47319993377 0.52680009604
0.00000000000 0.70275551081 0.29724448919
0.00000000000 0.64986377954 0.35013625026
0.00000000000 0.70383548737 0.29616448283
1.00000000000 0.44049900770 0.55950099230
0.00000000000 0.72361493111 0.27638506889
0.00000000000 0.72393447161 0.27606549859
1.00000000000 0.30435740948 0.69564259052
0.00000000000 0.62336665392 0.37663337588
1.00000000000 0.33252847195 0.66747152805
0.00000000000 0.72719657421 0.27280348539
0.00000000000 0.71005064249 0.28994935751
0.00000000000 0.72928398848 0.27071598172
0.00000000000 0.68591618538 0.31408381462
0.00000000000 0.61631751060 0.38368248940
0.00000000000 0.69439721107 0.30560275912
0.00000000000 0.34006437659 0.65993559361
0.00000000000 0.36086517572 0.63913488388
1.00000000000 0.53565824032 0.46434175968
1.00000000000 0.32155081630 0.67844921350
0.00000000000 0.72351783514 0.27648219466
0.00000000000 0.38972994685 0.61027002335
0.00000000000 0.63305836916 0.36694163084
0.00000000000 0.72845828533 0.27154168487
1.00000000000 0.41573324800 0.58426678181
0.00000000000 0.72899842262 0.27100163698
1.00000000000 0.36524093151 0.63475906849
0.00000000000 0.61195361614 0.38804638386
0.00000000000 0.49651169777 0.50348830223
0.00000000000 0.67537373304 0.32462623715
0.00000000000 0.59027421474 0.40972581506
0.00000000000 0.72500169277 0.27499830723
0.00000000000 0.32212552428 0.67787450552
0.00000000000 0.68320381641 0.31679621339
0.00000000000 0.70045447350 0.29954549670
0.00000000000 0.72411221266 0.27588781714
0.00000000000 0.62210500240 0.37789496779
0.00000000000 0.56021636724 0.43978360295
0.00000000000 0.70817500353 0.29182499647
0.00000000000 0.57670396566 0.42329600453
0.00000000000 0.44757330418 0.55242669582
0.00000000000 0.72838920355 0.27161082625
0.00000000000 0.54661256075 0.45338749886
0.00000000000 0.71644884348 0.28355115652
0.00000000000 0.67793971300 0.32206028700
0.00000000000 0.34596565366 0.65403437614
1.00000000000 0.29797178507 0.70202821493
0.00000000000 0.61774992943 0.38225010037
0.00000000000 0.70601767302 0.29398229718
1.00000000000 0.47602212429 0.52397787571
0.00000000000 0.67131954432 0.32868048549
0.00000000000 0.64275664091 0.35724338889
0.00000000000 0.70334339142 0.29665654898
0.00000000000 0.70161271095 0.29838725924
0.00000000000 0.49021863937 0.50978136063
0.00000000000 0.69095689058 0.30904310942
0.00000000000 0.72197443247 0.27802550793
0.00000000000 0.69243192673 0.30756801367
0.00000000000 0.67923849821 0.32076153159
0.00000000000 0.71447879076 0.28552117944
0.00000000000 0.69765943289 0.30234056711
0.00000000000 0.70941764116 0.29058235884
0.00000000000 0.71329993010 0.28670006990
0.00000000000 0.66166102886 0.33833897114
0.00000000000 0.70230901241 0.29769098759
0.00000000000 0.30571395159 0.69428598881
0.00000000000 0.72122967243 0.27877032757
0.00000000000 0.42668178678 0.57331818342
0.00000000000 0.71480476856 0.28519520164
1.00000000000 0.48112773895 0.51887226105
0.00000000000 0.42587101460 0.57412898540
1.00000000000 0.54627507925 0.45372489095
0.00000000000 0.57933682203 0.42066317797
0.00000000000 0.49455174804 0.50544822216
0.00000000000 0.69225889444 0.30774113536
0.00000000000 0.67053705454 0.32946294546
0.00000000000 0.55832040310 0.44167956710
0.00000000000 0.67845153809 0.32154852152
0.00000000000 0.70458841324 0.29541158676
0.00000000000 0.59448349476 0.40551653504
0.00000000000 0.51176577806 0.48823422194
1.00000000000 0.58729898930 0.41270101070
0.00000000000 0.68688213825 0.31311786175
0.00000000000 0.65065640211 0.34934359789
0.00000000000 0.70091336966 0.29908663034
0.00000000000 0.62973302603 0.37026703358
0.00000000000 0.72595584393 0.27404412627
0.00000000000 0.50525569916 0.49474427104
0.00000000000 0.48624309897 0.51375687122
0.00000000000 0.69508808851 0.30491188169
0.00000000000 0.72479462624 0.27520534396
1.00000000000 0.45058757067 0.54941242933
1.00000000000 0.63860869408 0.36139133573
0.00000000000 0.72837173939 0.27162823081
0.00000000000 0.71418470144 0.28581529856
0.00000000000 0.69332063198 0.30667942762
0.00000000000 0.72839540243 0.27160456777
1.00000000000 0.30144822598 0.69855177402
0.00000000000 0.72149747610 0.27850255370
0.00000000000 0.71581053734 0.28418943286
0.00000000000 0.70490092039 0.29509907961
0.00000000000 0.64947080612 0.35052913427
0.00000000000 0.72398746014 0.27601251006
0.00000000000 0.71507549286 0.28492444754
0.00000000000 0.65376693010 0.34623309970
0.00000000000 0.72625064850 0.27374935150
0.00000000000 0.46470817924 0.53529185057
0.00000000000 0.72082787752 0.27917209268
0.00000000000 0.71142774820 0.28857231140
0.00000000000 0.72693741322 0.27306252718
0.00000000000 0.38178026676 0.61821973324
0.00000000000 0.66496628523 0.33503368497
0.00000000000 0.71303552389 0.28696447611
1.00000000000 0.42856022716 0.57143980265
0.00000000000 0.56694561243 0.43305441737
0.00000000000 0.40930524468 0.59069472551
0.00000000000 0.62918537855 0.37081465125
0.00000000000 0.68884688616 0.31115311384
0.00000000000 0.63021928072 0.36978077888
0.00000000000 0.71548140049 0.28451862931
1.00000000000 0.63015514612 0.36984479427
0.00000000000 0.32969281077 0.67030721903
0.00000000000 0.39937421679 0.60062581301
0.00000000000 0.72555100918 0.27444899082
0.00000000000 0.71341371536 0.28658634424
1.00000000000 0.39856481552 0.60143518448
0.00000000000 0.72703766823 0.27296233177
0.00000000000 0.38388884068 0.61611109972
0.00000000000 0.41596183181 0.58403819799
1.00000000000 0.31521603465 0.68478393555
1.00000000000 0.31736123562 0.68263876438
0.00000000000 0.67183709145 0.32816293836
0.00000000000 0.72128063440 0.27871933579
0.00000000000 0.59022164345 0.40977838635
0.00000000000 0.72398823500 0.27601170540
0.00000000000 0.32119664550 0.67880338430
0.00000000000 0.41954383254 0.58045613766
0.00000000000 0.71650481224 0.28349524736
0.00000000000 0.59165060520 0.40834942460
0.00000000000 0.72701394558 0.27298602462
0.00000000000 0.33060553670 0.66939449310
0.00000000000 0.63573235273 0.36426767707
0.00000000000 0.72613185644 0.27386814356
0.00000000000 0.34583878517 0.65416127443
0.00000000000 0.65012872219 0.34987130761
1.00000000000 0.30834522843 0.69165480137
0.00000000000 0.32281997800 0.67717999220
0.00000000000 0.68728798628 0.31271204352
1.00000000000 0.30788329244 0.69211667776
0.00000000000 0.72018927336 0.27981072664
0.00000000000 0.61959433556 0.38040569425
0.00000000000 0.34431308508 0.65568691492
0.00000000000 0.30442118645 0.69557881355
0.00000000000 0.68202573061 0.31797423959
1.00000000000 0.35838386416 0.64161610603
0.00000000000 0.72414553165 0.27585446835
0.00000000000 0.71414929628 0.28585070372
0.00000000000 0.68010532856 0.31989464164
0.00000000000 0.67436993122 0.32563009858
0.00000000000 0.53816527128 0.46183469892
0.00000000000 0.67052823305 0.32947173715
0.00000000000 0.71043437719 0.28956562281
0.00000000000 0.50979566574 0.49020430446
0.00000000000 0.72617524862 0.27382478118
0.00000000000 0.43731790781 0.56268203259
0.00000000000 0.35292708874 0.64707291126
0.00000000000 0.72722405195 0.27277588844
1.00000000000 0.49831026793 0.50168973207
0.00000000000 0.59399849176 0.40600153804
0.00000000000 0.70653486252 0.29346507788
0.00000000000 0.72331476212 0.27668526769
0.00000000000 0.70730453730 0.29269543290
0.00000000000 0.66129958630 0.33870038390
1.00000000000 0.29627287388 0.70372712612
0.00000000000 0.71615153551 0.28384852409
0.00000000000 0.72548848391 0.27451148629
0.00000000000 0.69574296474 0.30425697565
0.00000000000 0.72812384367 0.27187612653
0.00000000000 0.39876341820 0.60123658180
0.00000000000 0.71001458168 0.28998535872
0.00000000000 0.45552346110 0.54447656870
0.00000000000 0.60437691212 0.39562311769
1.00000000000 0.30261692405 0.69738310575
0.00000000000 0.68189430237 0.31810566783
0.00000000000 0.71979010105 0.28020989895
0.00000000000 0.67442595959 0.32557404041
0.00000000000 0.58976006508 0.41023993492
1.00000000000 0.32370275259 0.67629718781
0.00000000000 0.52770006657 0.47229993343
1.00000000000 0.38241997361 0.61757999659
0.00000000000 0.57545280457 0.42454719543
0.00000000000 0.57074081898 0.42925915122
0.00000000000 0.58374226093 0.41625773907
0.00000000000 0.32451143861 0.67548853159
0.00000000000 0.67813837528 0.32186156511
0.00000000000 0.72116637230 0.27883365750
0.00000000000 0.72628200054 0.27371793985
0.00000000000 0.56804001331 0.43195995688
0.00000000000 0.32712998986 0.67287003994
0.00000000000 0.45840880275 0.54159122705
0.00000000000 0.49997994304 0.50002002716
0.00000000000 0.50073069334 0.49926933646
1.00000000000 0.46921941638 0.53078055382
1.00000000000 0.33356526494 0.66643470526
0.00000000000 0.49350005388 0.50649994612
0.00000000000 0.69531673193 0.30468326807
0.00000000000 0.52027213573 0.47972783446
0.00000000000 0.52726495266 0.47273510695
0.00000000000 0.32343184948 0.67656821012
0.00000000000 0.71894711256 0.28105288744
0.00000000000 0.30979290605 0.69020712376
0.00000000000 0.67895352840 0.32104647160
0.00000000000 0.72884070873 0.27115935087
1.00000000000 0.32234925032 0.67765080929
0.00000000000 0.70189833641 0.29810166359
0.00000000000 0.72630715370 0.27369278669
0.00000000000 0.64086687565 0.35913309455
0.00000000000 0.64915239811 0.35084763169
0.00000000000 0.48147967458 0.51852035522
0.00000000000 0.59199357033 0.40800645947
0.00000000000 0.72824704647 0.27175292373
0.00000000000 0.71016842127 0.28983160853
0.00000000000 0.71872293949 0.28127706051
0.00000000000 0.70443052053 0.29556950927
0.00000000000 0.71665495634 0.28334507346
0.00000000000 0.72006815672 0.27993181348
1.00000000000 0.34427812696 0.65572190285
0.00000000000 0.61196017265 0.38803979754
0.00000000000 0.65189808607 0.34810191393
0.00000000000 0.70018494129 0.29981505871
0.00000000000 0.72960257530 0.27039742470
0.00000000000 0.49065989256 0.50934010744
0.00000000000 0.70326167345 0.29673832655
1.00000000000 0.68139755726 0.31860247254
0.00000000000 0.62517005205 0.37482997775
1.00000000000 0.33080333471 0.66919666529
0.00000000000 0.63343513012 0.36656484008
0.00000000000 0.72237575054 0.27762421966
0.00000000000 0.72403770685 0.27596226335
0.00000000000 0.72802054882 0.27197942138
0.00000000000 0.49369671941 0.50630331039
0.00000000000 0.70194804668 0.29805189371
0.00000000000 0.71550232172 0.28449761868
0.00000000000 0.31104055047 0.68895947933
0.00000000000 0.69629061222 0.30370938778
1.00000000000 0.51338171959 0.48661831021
0.00000000000 0.66341435909 0.33658567071
0.00000000000 0.72552859783 0.27447140217
0.00000000000 0.71878093481 0.28121903539
0.00000000000 0.72612345219 0.27387651801
1.00000000000 0.37776556611 0.62223446369
0.00000000000 0.70880907774 0.29119089246
0.00000000000 0.72481769323 0.27518230677
0.00000000000 0.71250480413 0.28749519587
0.00000000000 0.72593659163 0.27406343818
0.00000000000 0.46968880296 0.53031122684
1.00000000000 0.71340495348 0.28659501672
1.00000000000 0.40339541435 0.59660458565
1.00000000000 0.37986662984 0.62013339996
0.00000000000 0.72553312778 0.27446693182
0.00000000000 0.70449978113 0.29550018907
1.00000000000 0.32395979762 0.67604017258
1.00000000000 0.65921300650 0.34078705311
0.00000000000 0.71968436241 0.28031563759
0.00000000000 0.72475337982 0.27524659038
0.00000000000 0.38606956601 0.61393046379
0.00000000000 0.66838598251 0.33161401749
0.00000000000 0.34708103538 0.65291893482
1.00000000000 0.29392483830 0.70607519150
0.00000000000 0.42431566119 0.57568436861
0.00000000000 0.72201025486 0.27798974514
0.00000000000 0.50629502535 0.49370500445
0.00000000000 0.43076625466 0.56923377514
0.00000000000 0.72270226479 0.27729773521
0.00000000000 0.72161388397 0.27838608623
0.00000000000 0.72575205564 0.27424797416
1.00000000000 0.29963698983 0.70036303997
0.00000000000 0.72423261404 0.27576738596
0.00000000000 0.66405415535 0.33594590425
0.00000000000 0.70648312569 0.29351690412
0.00000000000 0.72722697258 0.27277302742
0.00000000000 0.52808797359 0.47191205621
1.00000000000 0.29796677828 0.70203322172
0.00000000000 0.68815445900 0.31184551120
0.00000000000 0.72101080418 0.27898919582
0.00000000000 0.72516506910 0.27483490109
0.00000000000 0.39607805014 0.60392200947
0.00000000000 0.58926028013 0.41073971987
0.00000000000 0.45789894462 0.54210108519
0.00000000000 0.70323187113 0.29676815867
1.00000000000 0.67412501574 0.32587504387
0.00000000000 0.72610855103 0.27389141917
0.00000000000 0.42932823300 0.57067179680
0.00000000000 0.72111260891 0.27888733149
0.00000000000 0.33249616623 0.66750383377
1.00000000000 0.63280886412 0.36719116569
0.00000000000 0.36176323891 0.63823676109
1.00000000000 0.31121665239 0.68878334761
0.00000000000 0.72866582870 0.27133411169
0.00000000000 0.71675622463 0.28324377537
0.00000000000 0.71797633171 0.28202366829
0.00000000000 0.60054486990 0.39945510030
0.00000000000 0.69818896055 0.30181097984
0.00000000000 0.67138725519 0.32861268520
0.00000000000 0.68719351292 0.31280648708
0.00000000000 0.35395738482 0.64604264498
0.00000000000 0.71983897686 0.28016105294
0.00000000000 0.55706346035 0.44293653965
0.00000000000 0.71862637997 0.28137359023
0.00000000000 0.57616263628 0.42383736372
0.00000000000 0.71380478144 0.28619521856
0.00000000000 0.69244092703 0.30755907297
1.00000000000 0.43937963247 0.56062036753
0.00000000000 0.68619817495 0.31380179524
0.00000000000 0.70632219315 0.29367780685
0.00000000000 0.71300077438 0.28699922562
0.00000000000 0.54526579380 0.45473414660
0.00000000000 0.66345101595 0.33654895425
0.00000000000 0.42317432165 0.57682573795
0.00000000000 0.52923232317 0.47076767683
0.00000000000 0.70936638117 0.29063361883
0.00000000000 0.70576703548 0.29423296452
0.00000000000 0.72460049391 0.27539950609
0.00000000000 0.67470514774 0.32529482245
0.00000000000 0.64364486933 0.35635510087
0.00000000000 0.69637733698 0.30362269282
0.00000000000 0.69383406639 0.30616593361
0.00000000000 0.41716793180 0.58283209801
0.00000000000 0.62678724527 0.37321278453
0.00000000000 0.44645175338 0.55354827642
0.00000000000 0.67412525415 0.32587474585
0.00000000000 0.72380053997 0.27619948983
0.00000000000 0.72219437361 0.27780562639
0.00000000000 0.72680449486 0.27319550514
0.00000000000 0.63322824240 0.36677175760
0.00000000000 0.71228140593 0.28771859407
0.00000000000 0.69066041708 0.30933958292
1.00000000000 0.31045678258 0.68954318762
0.00000000000 0.41416251659 0.58583748341
0.00000000000 0.72277402878 0.27722591162
0.00000000000 0.72763830423 0.27236166596
0.00000000000 0.72130292654 0.27869710326
1.00000000000 0.36204999685 0.63795000315
0.00000000000 0.72758573294 0.27241429687
0.00000000000 0.46503391862 0.53496611118
0.00000000000 0.41991698742 0.58008301258
0.00000000000 0.71880954504 0.28119045496
0.00000000000 0.71187704802 0.28812298179
0.00000000000 0.54441821575 0.45558184385
0.00000000000 0.32024031878 0.67975968122
0.00000000000 0.61993652582 0.38006341457
0.00000000000 0.52193218470 0.47806778550
0.00000000000 0.70496499538 0.29503506422
0.00000000000 0.71745294333 0.28254708648
0.00000000000 0.72708481550 0.27291521430
1.00000000000 0.72844982147 0.27155020833
0.00000000000 0.45479559898 0.54520440102
0.00000000000 0.72630399466 0.27369594574
1.00000000000 0.32120099664 0.67879903316
0.00000000000 0.46748635173 0.53251361847
0.00000000000 0.66496038437 0.33503964543
0.00000000000 0.66587269306 0.33412733674
0.00000000000 0.71119964123 0.28880041838
0.00000000000 0.52503490448 0.47496506572
0.00000000000 0.70941364765 0.29058632255
0.00000000000 0.72920602560 0.27079403400
0.00000000000 0.65721184015 0.34278815985
0.00000000000 0.71846383810 0.28153613210
1.00000000000 0.29363623261 0.70636379719
0.00000000000 0.30816400051 0.69183599949
0.00000000000 0.71968930960 0.28031069040
0.00000000000 0.64423489571 0.35576510429
0.00000000000 0.72301793098 0.27698209882
0.00000000000 0.72111248970 0.27888754010
0.00000000000 0.72245115042 0.27754884958
1.00000000000 0.32033878565 0.67966115475
0.00000000000 0.62810325623 0.37189677358
0.00000000000 0.72595304251 0.27404695749
0.00000000000 0.72548276186 0.27451717854
0.00000000000 0.31339067221 0.68660938740
0.00000000000 0.72734493017 0.27265506983
0.00000000000 0.71378791332 0.28621214628
0.00000000000 0.63731747866 0.36268252134
1.00000000000 0.44734609127 0.55265390873
0.00000000000 0.70384198427 0.29615798593
0.00000000000 0.65523928404 0.34476065636
0.00000000000 0.59909665585 0.40090337396
0.00000000000 0.72312605381 0.27687394619
0.00000000000 0.65787130594 0.34212863445
0.00000000000 0.63087105751 0.36912891269
0.00000000000 0.71606463194 0.28393536806
0.00000000000 0.66060030460 0.33939969540
0.00000000000 0.59471845627 0.40528154373
0.00000000000 0.52469599247 0.47530400753
1.00000000000 0.68732064962 0.31267940998
1.00000000000 0.32581540942 0.67418462038
1.00000000000 0.35870486498 0.64129513502
0.00000000000 0.67161983252 0.32838019729
0.00000000000 0.56442558765 0.43557447195
0.00000000000 0.72574859858 0.27425140142
0.00000000000 0.49337413907 0.50662583113
0.00000000000 0.61521953344 0.38478046656
0.00000000000 0.65305191278 0.34694808722
0.00000000000 0.64161264896 0.35838732123
0.00000000000 0.35081559420 0.64918440580
0.00000000000 0.47024878860 0.52975124121
0.00000000000 0.64333564043 0.35666438937
0.00000000000 0.67920577526 0.32079416513
0.00000000000 0.72656279802 0.27343717217
0.00000000000 0.72443795204 0.27556207776
1.00000000000 0.36562094092 0.63437902927
0.00000000000 0.72755616903 0.27244377136
0.00000000000 0.70774024725 0.29225972295
0.00000000000 0.32255771756 0.67744231224
0.00000000000 0.38069975376 0.61930024624
0.00000000000 0.71616935730 0.28383061290
0.00000000000 0.61909550428 0.38090452552
0.00000000000 0.55687284470 0.44312709570
0.00000000000 0.53276020288 0.46723976731
0.00000000000 0.33436375856 0.66563624144
0.00000000000 0.72285127640 0.27714878321
0.00000000000 0.72466731071 0.27533268929
0.00000000000 0.60458338261 0.39541655779
0.00000000000 0.69747805595 0.30252200365
0.00000000000 0.71552574635 0.28447428346
0.00000000000 0.48212409019 0.51787590981
0.00000000000 0.69807994366 0.30192005634
1.00000000000 0.37662118673 0.62337881327
1.00000000000 0.30380833149 0.69619166851
0.00000000000 0.70098447800 0.29901552200
0.00000000000 0.32538464665 0.67461538315
0.00000000000 0.70517283678 0.29482710361
0.00000000000 0.35327303410 0.64672696590
0.00000000000 0.58932363987 0.41067633033
0.00000000000 0.72398203611 0.27601799369
0.00000000000 0.51900351048 0.48099651933
0.00000000000 0.37425643206 0.62574356794
0.00000000000 0.30460965633 0.69539034367
0.00000000000 0.37328398228 0.62671601772
0.00000000000 0.72591269016 0.27408730984
0.00000000000 0.38721725345 0.61278277636
0.00000000000 0.61612778902 0.38387218118
0.00000000000 0.71778279543 0.28221720457
0.00000000000 0.72423398495 0.27576601505
0.00000000000 0.71756684780 0.28243315220
0.00000000000 0.71942424774 0.28057581186
0.00000000000 0.65871411562 0.34128594398
0.00000000000 0.69547516108 0.30452480912
1.00000000000 0.34126853943 0.65873146057
1.00000000000 0.29682323337 0.70317679644
0.00000000000 0.32566934824 0.67433065176
0.00000000000 0.69682097435 0.30317905545
0.00000000000 0.67124319077 0.32875683904
0.00000000000 0.70451217890 0.29548785090
0.00000000000 0.70054155588 0.29945847392
1.00000000000 0.30545431376 0.69454574585
0.00000000000 0.67162317038 0.32837677002
0.00000000000 0.57201349735 0.42798647285
0.00000000000 0.72723269463 0.27276733518
0.00000000000 0.72776752710 0.27223253250
0.00000000000 0.57352024317 0.42647972703
0.00000000000 0.62940841913 0.37059155107
0.00000000000 0.47688651085 0.52311348915
0.00000000000 0.72243571281 0.27756425738
0.00000000000 0.71797657013 0.28202340007
0.00000000000 0.72342938185 0.27657058835
0.00000000000 0.34071722627 0.65928274393
0.00000000000 0.44348895550 0.55651104450
0.00000000000 0.50072485209 0.49927514791
0.00000000000 0.63089752197 0.36910250783
0.00000000000 0.69723552465 0.30276441574
1.00000000000 0.38886779547 0.61113214493
0.00000000000 0.68962901831 0.31037098169
1.00000000000 0.30104652047 0.69895350933
0.00000000000 0.72261631489 0.27738368511
0.00000000000 0.71313470602 0.28686526418
0.00000000000 0.72335588932 0.27664408088
0.00000000000 0.32197576761 0.67802423239
0.00000000000 0.72129875422 0.27870118618
0.00000000000 0.46310439706 0.53689563274
0.00000000000 0.72865962982 0.27134039998
0.00000000000 0.38478216529 0.61521780491
0.00000000000 0.65447163582 0.34552833438
0.00000000000 0.63112872839 0.36887130141
0.00000000000 0.67498946190 0.32501053810
0.00000000000 0.69842350483 0.30157649517
0.00000000000 0.72649019957 0.27350983024
0.00000000000 0.63275110722 0.36724892259
0.00000000000 0.70597028732 0.29402968287
0.00000000000 0.32302752137 0.67697244883
0.00000000000 0.60392743349 0.39607253671
0.00000000000 0.72101545334 0.27898454666
1.00000000000 0.30600574613 0.69399422407
0.00000000000 0.72431176901 0.27568820119
0.00000000000 0.71258807182 0.28741195798
0.00000000000 0.72388929129 0.27611067891
0.00000000000 0.36072733998 0.63927268982
1.00000000000 0.34825590253 0.65174406767
0.00000000000 0.69055444002 0.30944561958
1.00000000000 0.30104804039 0.69895195961
0.00000000000 0.66334265471 0.33665734529
0.00000000000 0.72607582808 0.27392423153
0.00000000000 0.67116254568 0.32883748412
1.00000000000 0.29718920588 0.70281076431
0.00000000000 0.71113848686 0.28886151314
0.00000000000 0.70593965054 0.29406037927
0.00000000000 0.60109663010 0.39890336990
0.00000000000 0.66724056005 0.33275941014
0.00000000000 0.32381352782 0.67618650198
0.00000000000 0.70719105005 0.29280892015
0.00000000000 0.72545832396 0.27454170585
0.00000000000 0.72734355927 0.27265644073
1.00000000000 0.54786825180 0.45213177800
0.00000000000 0.51392531395 0.48607468605
0.00000000000 0.70886355639 0.29113641381
0.00000000000 0.62130880356 0.37869116664
1.00000000000 0.56450790167 0.43549212813
0.00000000000 0.70634812117 0.29365184903
0.00000000000 0.62197232246 0.37802770734
0.00000000000 0.54791814089 0.45208182931
0.00000000000 0.70256584883 0.29743415117
0.00000000000 0.59817725420 0.40182274580
0.00000000000 0.70963048935 0.29036951065
0.00000000000 0.32315698266 0.67684304714
0.00000000000 0.70160323381 0.29839676619
0.00000000000 0.45051649213 0.54948347807
0.00000000000 0.69234555960 0.30765444040
0.00000000000 0.72314786911 0.27685213089
0.00000000000 0.65944331884 0.34055674076
0.00000000000 0.33279377222 0.66720622778
0.00000000000 0.51735365391 0.48264631629
0.00000000000 0.69574278593 0.30425718427
0.00000000000 0.71423387527 0.28576618433
0.00000000000 0.48389819264 0.51610183716
1.00000000000 0.30705720186 0.69294279814
0.00000000000 0.71012431383 0.28987571597
0.00000000000 0.29952478409 0.70047521591
0.00000000000 0.69174033403 0.30825960636
0.00000000000 0.71942555904 0.28057444096
0.00000000000 0.47704687715 0.52295309305
0.00000000000 0.71146148443 0.28853854537
0.00000000000 0.36585450172 0.63414543867
0.00000000000 0.71841681004 0.28158316016
0.00000000000 0.72618085146 0.27381914854
0.00000000000 0.32521978021 0.67478024960
0.00000000000 0.57862281799 0.42137718201
0.00000000000 0.51358950138 0.48641052842
0.00000000000 0.51411175728 0.48588827252
1.00000000000 0.31488737464 0.68511259556
0.00000000000 0.72247499228 0.27752503753
0.00000000000 0.67133557796 0.32866442204
0.00000000000 0.30464830995 0.69535166025
0.00000000000 0.63109582663 0.36890420318
0.00000000000 0.70333522558 0.29666477442
0.00000000000 0.72571146488 0.27428856492
0.00000000000 0.54065912962 0.45934087038
0.00000000000 0.71957212687 0.28042784333
0.00000000000 0.72225522995 0.27774477005
1.00000000000 0.30130362511 0.69869643450
0.00000000000 0.72382813692 0.27617186308
1.00000000000 0.62367451191 0.37632551789
0.00000000000 0.72172415257 0.27827581763
0.00000000000 0.57150030136 0.42849969864
0.00000000000 0.45137232542 0.54862767458
0.00000000000 0.69831687212 0.30168318748
0.00000000000 0.38441455364 0.61558550596
1.00000000000 0.71751815081 0.28248181939
0.00000000000 0.72313112020 0.27686887980
0.00000000000 0.64249318838 0.35750678182
0.00000000000 0.71019822359 0.28980174661
0.00000000000 0.66099458933 0.33900547028
0.00000000000 0.49054104090 0.50945895910
0.00000000000 0.33379280567 0.66620719433
0.00000000000 0.71397328377 0.28602668643
0.00000000000 0.68355047703 0.31644955277
0.00000000000 0.71176230907 0.28823769093
0.00000000000 0.63282823563 0.36717176437
0.00000000000 0.72247433662 0.27752569318
0.00000000000 0.70066463947 0.29933530092
0.00000000000 0.70163846016 0.29836153984
0.00000000000 0.41344800591 0.58655202389
1.00000000000 0.68122518063 0.31877487898
0.00000000000 0.37610483170 0.62389516830
0.00000000000 0.50874292850 0.49125704169
0.00000000000 0.32892474532 0.67107528448
1.00000000000 0.72839617729 0.27160379291
0.00000000000 0.70278555155 0.29721444845
0.00000000000 0.72577887774 0.27422112226
0.00000000000 0.64034569263 0.35965427756
0.00000000000 0.72226238251 0.27773758769
0.00000000000 0.71205371618 0.28794625401
0.00000000000 0.37230247259 0.62769752741
0.00000000000 0.31521952152 0.68478053808
0.00000000000 0.69464772940 0.30535227060
1.00000000000 0.29565134645 0.70434868336
0.00000000000 0.69064968824 0.30935037136
0.00000000000 0.72392469645 0.27607533336
0.00000000000 0.71234542131 0.28765460849
0.00000000000 0.53700715303 0.46299281716
0.00000000000 0.42543917894 0.57456076145
0.00000000000 0.72216010094 0.27783992887
0.00000000000 0.36001127958 0.63998878002
0.00000000000 0.40456068516 0.59543925524
0.00000000000 0.65694022179 0.34305974841
0.00000000000 0.44524627924 0.55475366116
0.00000000000 0.64178514481 0.35821485519
0.00000000000 0.64026308060 0.35973685980
0.00000000000 0.70672208071 0.29327788949
0.00000000000 0.64087468386 0.35912531614
0.00000000000 0.51980984211 0.48019015789
0.00000000000 0.30215084553 0.69784915447
1.00000000000 0.31952384114 0.68047618866
0.00000000000 0.59360057116 0.40639945865
0.00000000000 0.72400820255 0.27599179745
0.00000000000 0.48333236575 0.51666766405
0.00000000000 0.34332352877 0.65667641163
0.00000000000 0.72339731455 0.27660271525
0.00000000000 0.56600767374 0.43399232626
0.00000000000 0.67934072018 0.32065927982
1.00000000000 0.29613721371 0.70386278629
0.00000000000 0.64093935490 0.35906058550
0.00000000000 0.39897343516 0.60102653503
0.00000000000 0.72108978033 0.27891027927
1.00000000000 0.59237170219 0.40762823820
0.00000000000 0.70589894056 0.29410099983
0.00000000000 0.68268352747 0.31731641293
0.00000000000 0.65064758062 0.34935244918
0.00000000000 0.57980984449 0.42019009590
0.00000000000 0.72383517027 0.27616482973
0.00000000000 0.50404584408 0.49595418572
0.00000000000 0.70284408331 0.29715591669
0.00000000000 0.71577876806 0.28422126174
0.00000000000 0.34742638469 0.65257358551
0.00000000000 0.33928754926 0.66071242094
0.00000000000 0.43301430345 0.56698572636
0.00000000000 0.70246082544 0.29753914475
0.00000000000 0.48018324375 0.51981675625
0.00000000000 0.71902567148 0.28097429872
0.00000000000 0.45277047157 0.54722952843
0.00000000000 0.69980961084 0.30019035935
0.00000000000 0.70326703787 0.29673293233
0.00000000000 0.46279951930 0.53720051050
0.00000000000 0.32094547153 0.67905455828
0.00000000000 0.71962976456 0.28037023544
0.00000000000 0.71377658844 0.28622344136
0.00000000000 0.69735503197 0.30264493823
0.00000000000 0.67306792736 0.32693204284
0.00000000000 0.72268754244 0.27731248736
0.00000000000 0.61119049788 0.38880950212
0.00000000000 0.69836139679 0.30163857341
1.00000000000 0.33869242668 0.66130757332
0.00000000000 0.38244339824 0.61755663157
0.00000000000 0.67024117708 0.32975882292
0.00000000000 0.70412862301 0.29587140679
0.00000000000 0.31984958053 0.68015044928
0.00000000000 0.59402650595 0.40597346425
0.00000000000 0.72013819218 0.27986183763
1.00000000000 0.37451377511 0.62548625469
0.00000000000 0.54503840208 0.45496153831
0.00000000000 0.32958835363 0.67041164637
0.00000000000 0.67598015070 0.32401987910
0.00000000000 0.66145873070 0.33854123950
0.00000000000 0.59878712893 0.40121281147
0.00000000000 0.44539701939 0.55460298061
0.00000000000 0.72733807564 0.27266195416
0.00000000000 0.71218258142 0.28781735897
0.00000000000 0.70966267586 0.29033732414
0.00000000000 0.68036317825 0.31963682175
0.00000000000 0.69871109724 0.30128896236
0.00000000000 0.72926318645 0.27073675394
1.00000000000 0.28811484575 0.71188515425
0.00000000000 0.72209298611 0.27790698409
0.00000000000 0.72448551655 0.27551451325
0.00000000000 0.39643132687 0.60356861353
1.00000000000 0.31727612019 0.68272387981
1.00000000000 0.31613305211 0.68386697769
1.00000000000 0.39643540978 0.60356456041
0.00000000000 0.61933356524 0.38066646457
0.00000000000 0.71258085966 0.28741914034
0.00000000000 0.50976175070 0.49023827910
0.00000000000 0.59804034233 0.40195968747
0.00000000000 0.72116345167 0.27883651853
0.00000000000 0.67344260216 0.32655736804
0.00000000000 0.70076483488 0.29923513532
0.00000000000 0.48151439428 0.51848554611
0.00000000000 0.40899807215 0.59100192785
0.00000000000 0.71941953897 0.28058049083
0.00000000000 0.53247106075 0.46752887964
0.00000000000 0.71047651768 0.28952351213
0.00000000000 0.72218817472 0.27781179547
0.00000000000 0.72285664082 0.27714332938
0.00000000000 0.70474797487 0.29525208473
0.00000000000 0.71036499739 0.28963500261
0.00000000000 0.66211837530 0.33788159490
0.00000000000 0.71267557144 0.28732439876
0.00000000000 0.72927021980 0.27072978020
1.00000000000 0.48792991042 0.51207011938
1.00000000000 0.32447499037 0.67552500963
1.00000000000 0.51802247763 0.48197752237
1.00000000000 0.52607381344 0.47392615676
1.00000000000 0.31575065851 0.68424934149
1.00000000000 0.36612159014 0.63387835026
0.00000000000 0.69638562202 0.30361443758
0.00000000000 0.72256404161 0.27743595839
0.00000000000 0.39587959647 0.60412037373
1.00000000000 0.32831060886 0.67168939114
0.00000000000 0.43255013227 0.56744986773
0.00000000000 0.32207414508 0.67792582512
0.00000000000 0.39993208647 0.60006791353
0.00000000000 0.53604447842 0.46395549178
0.00000000000 0.68937283754 0.31062716246
0.00000000000 0.33037975430 0.66962021589
0.00000000000 0.58324199915 0.41675800085
0.00000000000 0.56848067045 0.43151929975
0.00000000000 0.69217050076 0.30782949924
0.00000000000 0.68181139231 0.31818860769
0.00000000000 0.71985691786 0.28014308214
1.00000000000 0.43654337525 0.56345659494
0.00000000000 0.68659347296 0.31340652704
0.00000000000 0.72330832481 0.27669170499
0.00000000000 0.72733324766 0.27266672254
0.00000000000 0.65920919180 0.34079080820
0.00000000000 0.72463989258 0.27536013722
0.00000000000 0.70383316278 0.29616683722
0.00000000000 0.72775369883 0.27224633098
0.00000000000 0.70954048634 0.29045945406
0.00000000000 0.62578666210 0.37421330810
0.00000000000 0.71202313900 0.28797686100
0.00000000000 0.71566033363 0.28433969617
0.00000000000 0.72560143471 0.27439853549
1.00000000000 0.30239078403 0.69760924578
0.00000000000 0.32132729888 0.67867267132
0.00000000000 0.32833960652 0.67166036367
0.00000000000 0.72532451153 0.27467548847
0.00000000000 0.69391107559 0.30608886480
0.00000000000 0.67537564039 0.32462435961
0.00000000000 0.67130005360 0.32869991660
0.00000000000 0.71470016241 0.28529980779
0.00000000000 0.72460412979 0.27539584041
0.00000000000 0.72398531437 0.27601468563
0.00000000000 0.64309459925 0.35690537095
0.00000000000 0.60254365206 0.39745637774
0.00000000000 0.69963496923 0.30036500096
0.00000000000 0.72865533829 0.27134472132
1.00000000000 0.58740586042 0.41259410977
0.00000000000 0.36501204967 0.63498800993
1.00000000000 0.35253742337 0.64746254683
0.00000000000 0.31208339334 0.68791663647
0.00000000000 0.60863047838 0.39136952162
0.00000000000 0.72175353765 0.27824643254
0.00000000000 0.57607060671 0.42392939329
1.00000000000 0.30490654707 0.69509351254
0.00000000000 0.72714036703 0.27285969257
1.00000000000 0.48651701212 0.51348298788
0.00000000000 0.38586983085 0.61413019896
0.00000000000 0.72054016590 0.27945986390
0.00000000000 0.43941426277 0.56058573723
0.00000000000 0.29793456197 0.70206546783
0.00000000000 0.72124081850 0.27875912189
0.00000000000 0.65391117334 0.34608882666
1.00000000000 0.32423186302 0.67576813698
0.00000000000 0.68474596739 0.31525397301
0.00000000000 0.71469932795 0.28530070186
0.00000000000 0.34669214487 0.65330791473
0.00000000000 0.71066319942 0.28933677077
0.00000000000 0.69576847553 0.30423146486
0.00000000000 0.62833720446 0.37166276574
0.00000000000 0.72788333893 0.27211663127
0.00000000000 0.72242158651 0.27757838368
1.00000000000 0.42224043608 0.57775956392
1.00000000000 0.30788552761 0.69211453199
0.00000000000 0.55014336109 0.44985660911
0.00000000000 0.63966679573 0.36033317447
1.00000000000 0.37806639075 0.62193357944
0.00000000000 0.68402546644 0.31597447395
0.00000000000 0.65604799986 0.34395202994
0.00000000000 0.71944260597 0.28055739403
0.00000000000 0.68217444420 0.31782552600
0.00000000000 0.71616911888 0.28383091092
0.00000000000 0.39513957500 0.60486042500
0.00000000000 0.72241550684 0.27758446336
0.00000000000 0.65748333931 0.34251669049
0.00000000000 0.67336398363 0.32663607597
1.00000000000 0.44055065513 0.55944937468
1.00000000000 0.35857155919 0.64142847061
0.00000000000 0.71555519104 0.28444477916
0.00000000000 0.71441012621 0.28558984399
1.00000000000 0.31004446745 0.68995547295
1.00000000000 0.34139218926 0.65860784054
0.00000000000 0.36187663674 0.63812339306
0.00000000000 0.72092545033 0.27907451987
0.00000000000 0.70740020275 0.29259976745
0.00000000000 0.72049558163 0.27950447798
0.00000000000 0.62693196535 0.37306800485
0.00000000000 0.72311246395 0.27688747644
0.00000000000 0.63316422701 0.36683574319
0.00000000000 0.71210217476 0.28789785504
0.00000000000 0.71687310934 0.28312692046
0.00000000000 0.71851974726 0.28148025274
0.00000000000 0.70910042524 0.29089957476
0.00000000000 0.72658556700 0.27341443300
0.00000000000 0.71046233177 0.28953769803
0.00000000000 0.69238477945 0.30761519074
0.00000000000 0.46055054665 0.53944945335
0.00000000000 0.32542666793 0.67457330227
0.00000000000 0.45933550596 0.54066455364
1.00000000000 0.70020097494 0.29979902506
0.00000000000 0.69946962595 0.30053034425
1.00000000000 0.34546977282 0.65453022718
0.00000000000 0.71286070347 0.28713935614
0.00000000000 0.68682497740 0.31317502260
0.00000000000 0.57400816679 0.42599180341
0.00000000000 0.70303118229 0.29696884751
1.00000000000 0.32711973786 0.67288029194
1.00000000000 0.31072482467 0.68927514553
0.00000000000 0.71285456419 0.28714540601
0.00000000000 0.61812454462 0.38187548518
0.00000000000 0.71391993761 0.28608006239
0.00000000000 0.71431034803 0.28568965197
0.00000000000 0.45995381474 0.54004615545
0.00000000000 0.37820646167 0.62179356813
0.00000000000 0.72050625086 0.27949377894
0.00000000000 0.69384616613 0.30615380406
0.00000000000 0.71501433849 0.28498569131
0.00000000000 0.71241515875 0.28758481145
0.00000000000 0.69258826971 0.30741176009
0.00000000000 0.72009176016 0.27990823984
0.00000000000 0.72442305088 0.27557697892
0.00000000000 0.59469819069 0.40530183911
0.00000000000 0.58534473181 0.41465529799
0.00000000000 0.68298226595 0.31701773405
1.00000000000 0.63118368387 0.36881625652
0.00000000000 0.43295022845 0.56704980135
0.00000000000 0.45846214890 0.54153782129
0.00000000000 0.68811732531 0.31188264489
0.00000000000 0.72358351946 0.27641651034
0.00000000000 0.71941697598 0.28058305383
0.00000000000 0.55693948269 0.44306054711
0.00000000000 0.70067137480 0.29932859540
0.00000000000 0.55242353678 0.44757649302
0.00000000000 0.72458904982 0.27541092038
0.00000000000 0.66823375225 0.33176624775
0.00000000000 0.66218942404 0.33781057596
1.00000000000 0.40897122025 0.59102880955
0.00000000000 0.71487915516 0.28512084484
0.00000000000 0.47132384777 0.52867615223
0.00000000000 0.72691023350 0.27308973670
0.00000000000 0.42394575477 0.57605427504
0.00000000000 0.35736852884 0.64263147116
0.00000000000 0.71990489960 0.28009516001
0.00000000000 0.68817120790 0.31182879210
0.00000000000 0.72021239996 0.27978754044
0.00000000000 0.68161326647 0.31838670373
0.00000000000 0.69979995489 0.30020001531
0.00000000000 0.72127771378 0.27872228622
0.00000000000 0.72816503048 0.27183499932
0.00000000000 0.46952366829 0.53047633171
0.00000000000 0.61627489328 0.38372510672
0.00000000000 0.44037500024 0.55962496996
0.00000000000 0.64545804262 0.35454195738
0.00000000000 0.72098070383 0.27901929617
0.00000000000 0.72656852007 0.27343147993
0.00000000000 0.71958154440 0.28041842580
0.00000000000 0.72669774294 0.27330222726
0.00000000000 0.58666831255 0.41333165765
1.00000000000 0.35474187136 0.64525812864
0.00000000000 0.70217734575 0.29782268405
0.00000000000 0.69950807095 0.30049189925
0.00000000000 0.38338655233 0.61661344767
0.00000000000 0.52795356512 0.47204637527
0.00000000000 0.71943426132 0.28056573868
0.00000000000 0.55917459726 0.44082537293
0.00000000000 0.46703991294 0.53296005726
0.00000000000 0.70995670557 0.29004326463
0.00000000000 0.38885319233 0.61114680767
1.00000000000 0.31301593781 0.68698406219
0.00000000000 0.71382701397 0.28617304564
0.00000000000 0.68837147951 0.31162849069
0.00000000000 0.72822260857 0.27177742124
0.00000000000 0.59136468172 0.40863531828
0.00000000000 0.65159434080 0.34840565920
0.00000000000 0.69043350220 0.30956649780
0.00000000000 0.62050801516 0.37949204445
0.00000000000 0.65516066551 0.34483930469
0.00000000000 0.72135698795 0.27864301205
0.00000000000 0.65389591455 0.34610408545
0.00000000000 0.46074187756 0.53925812244
0.00000000000 0.31407645345 0.68592357635
0.00000000000 0.69493365288 0.30506640673
0.00000000000 0.52552556992 0.47447443008
0.00000000000 0.52109438181 0.47890561819
0.00000000000 0.68830138445 0.31169861555
0.00000000000 0.72278034687 0.27721968293
0.00000000000 0.70890039206 0.29109960794
0.00000000000 0.46636208892 0.53363794088
0.00000000000 0.72836077213 0.27163922787
0.00000000000 0.43550696969 0.56449300051
0.00000000000 0.71867471933 0.28132525086
1.00000000000 0.54692703485 0.45307299495
0.00000000000 0.60033023357 0.39966973662
0.00000000000 0.72011864185 0.27988132834
0.00000000000 0.72385126352 0.27614879608
0.00000000000 0.70872753859 0.29127249122
0.00000000000 0.46661517024 0.53338479996
0.00000000000 0.63577276468 0.36422720551
0.00000000000 0.65525966883 0.34474030137
0.00000000000 0.70758962631 0.29241034389
0.00000000000 0.71866601706 0.28133398294
0.00000000000 0.70292651653 0.29707345366
0.00000000000 0.33309417963 0.66690582037
0.00000000000 0.54869431257 0.45130568743
0.00000000000 0.52151459455 0.47848537564
0.00000000000 0.71987575293 0.28012421727
0.00000000000 0.72173678875 0.27826321125
0.00000000000 0.35257214308 0.64742791653
0.00000000000 0.66591680050 0.33408319950
0.00000000000 0.51036071777 0.48963925242
1.00000000000 0.31369638443 0.68630361557
0.00000000000 0.72767531872 0.27232474089
1.00000000000 0.34748330712 0.65251666307
0.00000000000 0.72559422255 0.27440577745
1.00000000000 0.30847311020 0.69152688980
1.00000000000 0.34792050719 0.65207946301
0.00000000000 0.52913546562 0.47086450458
0.00000000000 0.70927160978 0.29072839022
0.00000000000 0.62263089418 0.37736907601
0.00000000000 0.72570699453 0.27429303527
1.00000000000 0.36191838980 0.63808161020
0.00000000000 0.71387511492 0.28612488508
0.00000000000 0.55141377449 0.44858619571
1.00000000000 0.37936785817 0.62063211203
0.00000000000 0.71448957920 0.28551042080
0.00000000000 0.32537889481 0.67462110519
0.00000000000 0.68818801641 0.31181195378
0.00000000000 0.59721553326 0.40278443694
1.00000000000 0.53702443838 0.46297556162
0.00000000000 0.72659116983 0.27340883017
0.00000000000 0.72569918633 0.27430081367
0.00000000000 0.72837203741 0.27162799239
1.00000000000 0.49227803946 0.50772196054
1.00000000000 0.39640161395 0.60359841585
0.00000000000 0.54440641403 0.45559355617
0.00000000000 0.62052059174 0.37947946787
0.00000000000 0.72430527210 0.27569469810
0.00000000000 0.67817085981 0.32182916999
0.00000000000 0.30555552244 0.69444447756
0.00000000000 0.47578442097 0.52421557903
0.00000000000 0.72241550684 0.27758443356
0.00000000000 0.68318241835 0.31681758165
0.00000000000 0.45710635185 0.54289364815
0.00000000000 0.69015657902 0.30984345078
0.00000000000 0.72537994385 0.27462002635
0.00000000000 0.61372047663 0.38627949357
0.00000000000 0.65437549353 0.34562447667
0.00000000000 0.50772684813 0.49227318168
0.00000000000 0.67939013243 0.32060983777
0.00000000000 0.43251138926 0.56748861074
0.00000000000 0.34627297521 0.65372699499
0.00000000000 0.52531009912 0.47468990088
0.00000000000 0.72628575563 0.27371418476
0.00000000000 0.69931918383 0.30068081617
0.00000000000 0.51220381260 0.48779612780
0.00000000000 0.72616618872 0.27383375168
0.00000000000 0.61901354790 0.38098645210
0.00000000000 0.66343075037 0.33656924963
0.00000000000 0.67577058077 0.32422938943
0.00000000000 0.72209262848 0.27790737152
0.00000000000 0.43427753448 0.56572252512
0.00000000000 0.72711253166 0.27288746834
0.00000000000 0.71417903900 0.28582093120
0.00000000000 0.71536648273 0.28463345766
0.00000000000 0.65778756142 0.34221249819
0.00000000000 0.71580904722 0.28419092298
0.00000000000 0.30153724551 0.69846278429
1.00000000000 0.30311369896 0.69688630104
0.00000000000 0.67839080095 0.32160922885
0.00000000000 0.50295501947 0.49704495072
0.00000000000 0.39500224590 0.60499769449
0.00000000000 0.63444787264 0.36555215716
1.00000000000 0.32188397646 0.67811602354
0.00000000000 0.70293062925 0.29706937075
0.00000000000 0.67447400093 0.32552599907
0.00000000000 0.71613389254 0.28386604786
0.00000000000 0.69516432285 0.30483567715
0.00000000000 0.47893968225 0.52106028795
0.00000000000 0.69514656067 0.30485346913
0.00000000000 0.71353715658 0.28646290302
0.00000000000 0.72608637810 0.27391359210
0.00000000000 0.70991069078 0.29008930922
0.00000000000 0.68140810728 0.31859195232
0.00000000000 0.72370660305 0.27629342675
0.00000000000 0.71773892641 0.28226107359
0.00000000000 0.71164089441 0.28835907578
0.00000000000 0.42358344793 0.57641649246
0.00000000000 0.64828675985 0.35171324015
0.00000000000 0.72202277184 0.27797722816
0.00000000000 0.57523077726 0.42476925254
1.00000000000 0.49741405249 0.50258594751
0.00000000000 0.72253441811 0.27746558189
0.00000000000 0.35844177008 0.64155817032
0.00000000000 0.69087678194 0.30912321806
0.00000000000 0.70283204317 0.29716795683
0.00000000000 0.71540617943 0.28459388018
0.00000000000 0.64370548725 0.35629448295
0.00000000000 0.68689548969 0.31310451031
0.00000000000 0.71023511887 0.28976494074
0.00000000000 0.40767538548 0.59232461452
0.00000000000 0.72229135036 0.27770867944
0.00000000000 0.63257354498 0.36742648482
1.00000000000 0.29813098907 0.70186901093
0.00000000000 0.71731352806 0.28268650174
0.00000000000 0.72280973196 0.27719029784
0.00000000000 0.35258123279 0.64741879702
0.00000000000 0.56578052044 0.43421953917
1.00000000000 0.30946528912 0.69053471088
0.00000000000 0.70930123329 0.29069876671
0.00000000000 0.63094317913 0.36905676126
0.00000000000 0.71930330992 0.28069669008
0.00000000000 0.72894525528 0.27105471492
0.00000000000 0.71537065506 0.28462937474
0.00000000000 0.46606957912 0.53393042088
0.00000000000 0.68136781454 0.31863218546
0.00000000000 0.72006797791 0.27993205190
0.00000000000 0.72682607174 0.27317392826
0.00000000000 0.71774721146 0.28225281835
0.00000000000 0.72712236643 0.27287760377
0.00000000000 0.71406972408 0.28593030572
0.00000000000 0.42817103863 0.57182896137
1.00000000000 0.38672447205 0.61327552795
0.00000000000 0.71048599482 0.28951397538
0.00000000000 0.72424799204 0.27575200796
1.00000000000 0.30875065923 0.69124937057
0.00000000000 0.59368568659 0.40631428361
0.00000000000 0.70740979910 0.29259023070
0.00000000000 0.72153252363 0.27846741676
0.00000000000 0.72601246834 0.27398747206
0.00000000000 0.36340346932 0.63659650087
0.00000000000 0.72540879250 0.27459117770
0.00000000000 0.30954641104 0.69045358896
0.00000000000 0.72501993179 0.27498009801
0.00000000000 0.72609955072 0.27390047908
0.00000000000 0.70753598213 0.29246404767
0.00000000000 0.72332382202 0.27667614818
0.00000000000 0.72874665260 0.27125334740
0.00000000000 0.71679210663 0.28320792317
0.00000000000 0.72406697273 0.27593299747
0.00000000000 0.46908956766 0.53091043234
0.00000000000 0.66390323639 0.33609676361
0.00000000000 0.65983390808 0.34016609192
0.00000000000 0.71703290939 0.28296706080
0.00000000000 0.63531547785 0.36468449235
0.00000000000 0.48259636760 0.51740360260
0.00000000000 0.54727613926 0.45272389054
0.00000000000 0.71693408489 0.28306588531
1.00000000000 0.38898840547 0.61101156473
0.00000000000 0.60228627920 0.39771372080
1.00000000000 0.31045961380 0.68954032660
0.00000000000 0.64375859499 0.35624143481
0.00000000000 0.71473008394 0.28526997566
0.00000000000 0.32906278968 0.67093718052
1.00000000000 0.48575535417 0.51424467564
0.00000000000 0.72126597166 0.27873405814
0.00000000000 0.50910526514 0.49089476466
0.00000000000 0.29991778731 0.70008218288
1.00000000000 0.29739117622 0.70260882378
0.00000000000 0.72261297703 0.27738702297
0.00000000000 0.72747230530 0.27252775431
0.00000000000 0.71747803688 0.28252199292
0.00000000000 0.72728443146 0.27271559834
0.00000000000 0.72724139690 0.27275863290
0.00000000000 0.72947311401 0.27052685618
0.00000000000 0.56271803379 0.43728199601
0.00000000000 0.42358595133 0.57641404867
0.00000000000 0.71667450666 0.28332543373
0.00000000000 0.66706854105 0.33293145895
0.00000000000 0.61266976595 0.38733029366
0.00000000000 0.72768503428 0.27231502533
0.00000000000 0.65617138147 0.34382858872
1.00000000000 0.34211024642 0.65788978338
0.00000000000 0.38989102840 0.61010897160
0.00000000000 0.71296525002 0.28703477979
0.00000000000 0.71788078547 0.28211924434
0.00000000000 0.70051282644 0.29948720336
0.00000000000 0.72638338804 0.27361667156
0.00000000000 0.72239035368 0.27760961652
0.00000000000 0.72428286076 0.27571716905
0.00000000000 0.71482306719 0.28517693281
0.00000000000 0.69005113840 0.30994883180
0.00000000000 0.70496380329 0.29503616691
0.00000000000 0.62958168983 0.37041836977
0.00000000000 0.66019761562 0.33980235457
0.00000000000 0.71278893948 0.28721103072
0.00000000000 0.69644743204 0.30355262756
1.00000000000 0.61051481962 0.38948515058
0.00000000000 0.72441995144 0.27557998896
0.00000000000 0.72283458710 0.27716541290
0.00000000000 0.68558192253 0.31441801786
0.00000000000 0.34920024872 0.65079975128
0.00000000000 0.52100431919 0.47899565101
0.00000000000 0.64793717861 0.35206288099
0.00000000000 0.71218848228 0.28781154752
0.00000000000 0.34610676765 0.65389323235
0.00000000000 0.71871346235 0.28128653765
