0.00000000000 0.44900229573 0.55099773407
0.00000000000 0.44927191734 0.55072808266
0.00000000000 0.44877126813 0.55122870207
1.00000000000 0.44912111759 0.55087888241
1.00000000000 0.44859787822 0.55140215158
0.00000000000 0.44859087467 0.55140912533
0.00000000000 0.44823732972 0.55176270008
1.00000000000 0.44891360402 0.55108642578
0.00000000000 0.44907617569 0.55092376471
0.00000000000 0.44880974293 0.55119019747
0.00000000000 0.44851195812 0.55148810148
0.00000000000 0.44863229990 0.55136775970
1.00000000000 0.44857472181 0.55142527819
0.00000000000 0.44825282693 0.55174720287
0.00000000000 0.44878569245 0.55121427774
0.00000000000 0.44826146960 0.55173856020
0.00000000000 0.44831472635 0.55168533325
0.00000000000 0.44861808419 0.55138194561
0.00000000000 0.44887211919 0.55112791061
1.00000000000 0.44856625795 0.55143374205
0.00000000000 0.44885241985 0.55114758015
0.00000000000 0.44829317927 0.55170685053
0.00000000000 0.44853270054 0.55146729946
0.00000000000 0.44888797402 0.55111205578
0.00000000000 0.44848003983 0.55151998997
0.00000000000 0.44845074415 0.55154919624
0.00000000000 0.44863566756 0.55136430264
0.00000000000 0.44853162766 0.55146837234
0.00000000000 0.44854894280 0.55145108700
0.00000000000 0.44798603654 0.55201399326
0.00000000000 0.44877317548 0.55122685432
0.00000000000 0.44878754020 0.55121243000
0.00000000000 0.44825586677 0.55174416304
0.00000000000 0.44898578525 0.55101424456
0.00000000000 0.44910490513 0.55089515448
0.00000000000 0.44889166951 0.55110836029
0.00000000000 0.44873610139 0.55126386881
0.00000000000 0.44885289669 0.55114710331
0.00000000000 0.44849547744 0.55150455236
1.00000000000 0.44903796911 0.55096209049
0.00000000000 0.44891664386 0.55108338594
0.00000000000 0.44916689396 0.55083310604
0.00000000000 0.44830635190 0.55169367790
0.00000000000 0.44906318188 0.55093681812
0.00000000000 0.44797948003 0.55202054977
0.00000000000 0.44841134548 0.55158865452
0.00000000000 0.44824591279 0.55175405741
1.00000000000 0.44879731536 0.55120265484
0.00000000000 0.44867917895 0.55132079124
1.00000000000 0.44924300909 0.55075699091
0.00000000000 0.44891121984 0.55108880997
0.00000000000 0.44870963693 0.55129033327
0.00000000000 0.44862425327 0.55137568712
0.00000000000 0.44923171401 0.55076831579
0.00000000000 0.44865539670 0.55134463310
0.00000000000 0.44856303930 0.55143696070
0.00000000000 0.44838917255 0.55161088705
0.00000000000 0.44880145788 0.55119854212
0.00000000000 0.44844338298 0.55155658722
1.00000000000 0.44819387794 0.55180609226
0.00000000000 0.44856461883 0.55143535137
1.00000000000 0.44875064492 0.55124938488
0.00000000000 0.44824862480 0.55175137520
0.00000000000 0.44830051064 0.55169951916
0.00000000000 0.44892561436 0.55107438564
0.00000000000 0.44885993004 0.55114001036
0.00000000000 0.44832342863 0.55167657137
0.00000000000 0.44897103310 0.55102896690
0.00000000000 0.44901877642 0.55098122358
1.00000000000 0.44868418574 0.55131578445
1.00000000000 0.44920757413 0.55079239607
0.00000000000 0.44890722632 0.55109274387
0.00000000000 0.44893500209 0.55106502771
1.00000000000 0.44832205772 0.55167794228
0.00000000000 0.44894981384 0.55105018616
0.00000000000 0.44868713617 0.55131286383
0.00000000000 0.44825354218 0.55174642801
0.00000000000 0.44907552004 0.55092442036
0.00000000000 0.44918370247 0.55081629753
0.00000000000 0.44876071811 0.55123931170
0.00000000000 0.44826209545 0.55173790455
0.00000000000 0.44903600216 0.55096399784
0.00000000000 0.44878771901 0.55121231079
0.00000000000 0.44869777560 0.55130219460
1.00000000000 0.44903996587 0.55096006393
0.00000000000 0.44869211316 0.55130785704
0.00000000000 0.44882908463 0.55117088556
1.00000000000 0.44840106368 0.55159896612
0.00000000000 0.44860243797 0.55139762163
0.00000000000 0.44906643033 0.55093353987
1.00000000000 0.44887217879 0.55112785101
0.00000000000 0.44908073545 0.55091923475
1.00000000000 0.44882693887 0.55117303133
0.00000000000 0.44894242287 0.55105763674
0.00000000000 0.44894242287 0.55105763674
0.00000000000 0.44814467430 0.55185532570
0.00000000000 0.44918838143 0.55081164837
0.00000000000 0.44824758172 0.55175238848
0.00000000000 0.44908988476 0.55091011524
0.00000000000 0.44846138358 0.55153864622
0.00000000000 0.44889900088 0.55110096931
0.00000000000 0.44886392355 0.55113607645
0.00000000000 0.44819998741 0.55180001259
0.00000000000 0.44784843922 0.55215156078
0.00000000000 0.44858446717 0.55141550303
1.00000000000 0.44833490252 0.55166506767
0.00000000000 0.44884306192 0.55115693808
0.00000000000 0.44882637262 0.55117362738
0.00000000000 0.44861537218 0.55138462782
0.00000000000 0.44905048609 0.55094957352
0.00000000000 0.44823276997 0.55176723003
0.00000000000 0.44845110178 0.55154889822
0.00000000000 0.44866484404 0.55133509636
0.00000000000 0.44889295101 0.55110698938
0.00000000000 0.44913288951 0.55086708069
0.00000000000 0.44864213467 0.55135786533
0.00000000000 0.44902545214 0.55097454786
0.00000000000 0.44854134321 0.55145865679
0.00000000000 0.44847017527 0.55152976513
0.00000000000 0.44892880321 0.55107122660
0.00000000000 0.44845762849 0.55154240131
0.00000000000 0.44881761074 0.55118238926
0.00000000000 0.44860109687 0.55139893293
0.00000000000 0.44889006019 0.55110991001
0.00000000000 0.44843143225 0.55156856775
0.00000000000 0.44859457016 0.55140542984
0.00000000000 0.44858580828 0.55141419172
0.00000000000 0.44819220901 0.55180782080
0.00000000000 0.44856163859 0.55143833160
0.00000000000 0.44857430458 0.55142575502
0.00000000000 0.44869223237 0.55130773783
0.00000000000 0.44898635149 0.55101370811
0.00000000000 0.44863948226 0.55136048794
0.00000000000 0.44825869799 0.55174136162
0.00000000000 0.44822916389 0.55177080631
0.00000000000 0.44858151674 0.55141848326
0.00000000000 0.44874781370 0.55125224590
0.00000000000 0.44911733270 0.55088269711
0.00000000000 0.44804003835 0.55195993185
1.00000000000 0.44904622436 0.55095380545
0.00000000000 0.44874852896 0.55125153065
0.00000000000 0.44872063398 0.55127942562
1.00000000000 0.44886961579 0.55113041401
1.00000000000 0.44844585657 0.55155414343
0.00000000000 0.44859322906 0.55140674114
0.00000000000 0.44828683138 0.55171316862
0.00000000000 0.44860613346 0.55139380693
0.00000000000 0.44851368666 0.55148631334
0.00000000000 0.44857439399 0.55142563581
1.00000000000 0.44877791405 0.55122208595
0.00000000000 0.44899943471 0.55100059509
0.00000000000 0.44889640808 0.55110359192
0.00000000000 0.44889035821 0.55110967159
0.00000000000 0.44825252891 0.55174744129
0.00000000000 0.44876417518 0.55123579502
1.00000000000 0.44870281219 0.55129718781
0.00000000000 0.44891360402 0.55108642578
0.00000000000 0.44858750701 0.55141252279
0.00000000000 0.44864803553 0.55135202408
0.00000000000 0.44881978631 0.55118024349
0.00000000000 0.44825434685 0.55174571276
0.00000000000 0.44832989573 0.55167013407
0.00000000000 0.44898024201 0.55101978779
0.00000000000 0.44833123684 0.55166876316
0.00000000000 0.44830113649 0.55169886351
0.00000000000 0.44804510474 0.55195486546
0.00000000000 0.44909009337 0.55090987682
0.00000000000 0.44858875871 0.55141121149
0.00000000000 0.44895699620 0.55104297400
1.00000000000 0.44881173968 0.55118829012
0.00000000000 0.44883972406 0.55116027594
0.00000000000 0.44853579998 0.55146414042
0.00000000000 0.44827240705 0.55172759295
1.00000000000 0.44863921404 0.55136078596
0.00000000000 0.44852757454 0.55147242546
0.00000000000 0.44839185476 0.55160814524
0.00000000000 0.44878351688 0.55121648312
0.00000000000 0.44910460711 0.55089539289
0.00000000000 0.44894021749 0.55105978251
0.00000000000 0.44904369116 0.55095636845
0.00000000000 0.44910538197 0.55089461803
1.00000000000 0.44871121645 0.55128872395
0.00000000000 0.44881817698 0.55118179321
0.00000000000 0.44801050425 0.55198949575
1.00000000000 0.44862681627 0.55137318373
0.00000000000 0.44831892848 0.55168104172
1.00000000000 0.44891464710 0.55108535290
0.00000000000 0.44899210334 0.55100786686
0.00000000000 0.44876578450 0.55123424530
0.00000000000 0.44878882170 0.55121117830
0.00000000000 0.44895434380 0.55104565620
0.00000000000 0.44879221916 0.55120784044
0.00000000000 0.44855836034 0.55144160986
0.00000000000 0.44907394052 0.55092608929
0.00000000000 0.44851720333 0.55148279667
0.00000000000 0.44845646620 0.55154347420
1.00000000000 0.44898644090 0.55101358891
0.00000000000 0.44913381338 0.55086618662
0.00000000000 0.44837224483 0.55162775517
0.00000000000 0.44894617796 0.55105376244
0.00000000000 0.44882264733 0.55117738247
0.00000000000 0.44893720746 0.55106282234
0.00000000000 0.44873440266 0.55126559734
0.00000000000 0.44910132885 0.55089867115
0.00000000000 0.44859698415 0.55140298605
0.00000000000 0.44797056913 0.55202943087
0.00000000000 0.44886356592 0.55113637447
1.00000000000 0.44870033860 0.55129969120
0.00000000000 0.44912704825 0.55087298155
0.00000000000 0.44902017713 0.55097979307
0.00000000000 0.44919273257 0.55080729723
0.00000000000 0.44862058759 0.55137938261
0.00000000000 0.44919937849 0.55080062151
0.00000000000 0.44890940189 0.55109053850
0.00000000000 0.44904088974 0.55095911026
0.00000000000 0.44875663519 0.55124336481
0.00000000000 0.44849961996 0.55150032043
0.00000000000 0.44850510359 0.55149489641
0.00000000000 0.44898483157 0.55101513863
0.00000000000 0.44887703657 0.55112290382
0.00000000000 0.44905066490 0.55094933510
0.00000000000 0.44861707091 0.55138289928
0.00000000000 0.44906330109 0.55093669891
1.00000000000 0.44856771827 0.55143225193
0.00000000000 0.44859063625 0.55140936375
0.00000000000 0.44845968485 0.55154031515
0.00000000000 0.44876578450 0.55123424530
0.00000000000 0.44804811478 0.55195188522
0.00000000000 0.44882220030 0.55117785931
0.00000000000 0.44882968068 0.55117028952
0.00000000000 0.44871714711 0.55128282309
0.00000000000 0.44897204638 0.55102795362
0.00000000000 0.44868043065 0.55131959915
0.00000000000 0.44896313548 0.55103683472
0.00000000000 0.44869831204 0.55130165815
0.00000000000 0.44893610477 0.55106383562
0.00000000000 0.44862174988 0.55137825012
0.00000000000 0.44880953431 0.55119049549
0.00000000000 0.44802838564 0.55197161436
0.00000000000 0.44869643450 0.55130362511
0.00000000000 0.44880077243 0.55119925737
0.00000000000 0.44921311736 0.55078691244
0.00000000000 0.44880437851 0.55119562149
0.00000000000 0.44839683175 0.55160319805
0.00000000000 0.44864219427 0.55135780573
0.00000000000 0.44870164990 0.55129832029
0.00000000000 0.44884690642 0.55115312338
0.00000000000 0.44878643751 0.55121356249
0.00000000000 0.44870701432 0.55129301548
0.00000000000 0.44889253378 0.55110752583
0.00000000000 0.44836884737 0.55163121223
0.00000000000 0.44859084487 0.55140912533
0.00000000000 0.44881206751 0.55118799210
0.00000000000 0.44920003414 0.55080002546
0.00000000000 0.44900640845 0.55099362135
0.00000000000 0.44858434796 0.55141562223
0.00000000000 0.44885060191 0.55114936829
0.00000000000 0.44875910878 0.55124086142
0.00000000000 0.44853225350 0.55146771669
0.00000000000 0.44883349538 0.55116653442
1.00000000000 0.44892191887 0.55107802153
0.00000000000 0.44855952263 0.55144041777
0.00000000000 0.44867628813 0.55132371187
0.00000000000 0.44868686795 0.55131310225
0.00000000000 0.44869512320 0.55130487680
0.00000000000 0.44819533825 0.55180466175
0.00000000000 0.44844406843 0.55155587196
0.00000000000 0.44830304384 0.55169689655
0.00000000000 0.44838136435 0.55161863565
0.00000000000 0.44919490814 0.55080509186
0.00000000000 0.44855907559 0.55144089460
0.00000000000 0.44904014468 0.55095988512
0.00000000000 0.44836267829 0.55163729191
0.00000000000 0.44830957055 0.55169039965
0.00000000000 0.44893458486 0.55106544495
1.00000000000 0.44850331545 0.55149668455
1.00000000000 0.44825649261 0.55174350739
0.00000000000 0.44834214449 0.55165779591
0.00000000000 0.44848939776 0.55151057243
0.00000000000 0.44854140282 0.55145865679
1.00000000000 0.44887340069 0.55112653971
1.00000000000 0.44838041067 0.55161958933
0.00000000000 0.44854307175 0.55145692825
0.00000000000 0.44874367118 0.55125635862
0.00000000000 0.44888669252 0.55111330748
0.00000000000 0.44864517450 0.55135482550
0.00000000000 0.44851863384 0.55148142576
0.00000000000 0.44860810041 0.55139189959
0.00000000000 0.44875076413 0.55124926567
0.00000000000 0.44919830561 0.55080169439
0.00000000000 0.44893762469 0.55106240511
0.00000000000 0.44868701696 0.55131298304
0.00000000000 0.44919952750 0.55080044270
0.00000000000 0.44823536277 0.55176466703
0.00000000000 0.44894057512 0.55105942488
1.00000000000 0.44835478067 0.55164515972
0.00000000000 0.44883945584 0.55116057396
0.00000000000 0.44864913821 0.55135083199
0.00000000000 0.44838958979 0.55161035061
0.00000000000 0.44881841540 0.55118161440
0.00000000000 0.44864085317 0.55135917664
1.00000000000 0.44827994704 0.55172008276
0.00000000000 0.44838568568 0.55161434412
0.00000000000 0.44902682304 0.55097311735
0.00000000000 0.44887784123 0.55112212896
0.00000000000 0.44873622060 0.55126374960
1.00000000000 0.44822788239 0.55177211761
1.00000000000 0.44892489910 0.55107516050
0.00000000000 0.44906651974 0.55093348026
1.00000000000 0.44907155633 0.55092841387
0.00000000000 0.44824939966 0.55175054073
0.00000000000 0.44830608368 0.55169391632
0.00000000000 0.44897159934 0.55102843046
0.00000000000 0.44855451584 0.55144542456
0.00000000000 0.44887796044 0.55112206936
0.00000000000 0.44881057739 0.55118942261
0.00000000000 0.44884610176 0.55115389824
0.00000000000 0.44905990362 0.55094009638
0.00000000000 0.44872301817 0.55127698183
1.00000000000 0.44876232743 0.55123764277
0.00000000000 0.44877600670 0.55122399330
0.00000000000 0.44903844595 0.55096155405
0.00000000000 0.44891121984 0.55108875036
0.00000000000 0.44875487685 0.55124515295
0.00000000000 0.44849693775 0.55150306225
0.00000000000 0.44847130775 0.55152869225
0.00000000000 0.44827631116 0.55172371864
1.00000000000 0.44814825058 0.55185174942
0.00000000000 0.44905859232 0.55094140768
0.00000000000 0.44888854027 0.55111140013
0.00000000000 0.44870513678 0.55129492283
0.00000000000 0.44867876172 0.55132126808
1.00000000000 0.44874274731 0.55125725269
0.00000000000 0.44879579544 0.55120420456
0.00000000000 0.44844391942 0.55155605078
0.00000000000 0.44869360328 0.55130636692
0.00000000000 0.44841614366 0.55158382654
0.00000000000 0.44885247946 0.55114758015
0.00000000000 0.44888544083 0.55111461878
0.00000000000 0.44867599010 0.55132395029
1.00000000000 0.44835281372 0.55164724588
0.00000000000 0.44877606630 0.55122399330
0.00000000000 0.44831261039 0.55168735981
0.00000000000 0.44824656844 0.55175346136
0.00000000000 0.44873014092 0.55126982927
0.00000000000 0.44861599803 0.55138397217
0.00000000000 0.44879975915 0.55120027065
1.00000000000 0.44854766130 0.55145233870
0.00000000000 0.44814902544 0.55185097456
0.00000000000 0.44843685627 0.55156314373
0.00000000000 0.44820439816 0.55179554224
0.00000000000 0.44897031784 0.55102968216
0.00000000000 0.44870525599 0.55129474401
0.00000000000 0.44882425666 0.55117571354
0.00000000000 0.44868412614 0.55131590366
0.00000000000 0.44836643338 0.55163359642
0.00000000000 0.44867435098 0.55132561922
0.00000000000 0.44853717089 0.55146282911
0.00000000000 0.44894623756 0.55105376244
1.00000000000 0.44877088070 0.55122911930
0.00000000000 0.44823983312 0.55176019669
0.00000000000 0.44912415743 0.55087584257
0.00000000000 0.44885703921 0.55114293098
0.00000000000 0.44855412841 0.55144590139
0.00000000000 0.44859227538 0.55140769482
0.00000000000 0.44879040122 0.55120956898
0.00000000000 0.44877550006 0.55122447014
0.00000000000 0.44890004396 0.55109995604
1.00000000000 0.44839406013 0.55160593987
1.00000000000 0.44863542914 0.55136454105
0.00000000000 0.44875156879 0.55124837160
0.00000000000 0.44914913177 0.55085086823
0.00000000000 0.44859930873 0.55140072107
0.00000000000 0.44857349992 0.55142647028
0.00000000000 0.44908681512 0.55091321468
0.00000000000 0.44864612818 0.55135387182
0.00000000000 0.44847324491 0.55152678490
0.00000000000 0.44884419441 0.55115580559
0.00000000000 0.44880709052 0.55119287968
0.00000000000 0.44824999571 0.55175006390
1.00000000000 0.44897145033 0.55102854967
0.00000000000 0.44829455018 0.55170547962
0.00000000000 0.44811016321 0.55188983679
0.00000000000 0.44853055477 0.55146944523
0.00000000000 0.44869187474 0.55130809546
0.00000000000 0.44867101312 0.55132895708
1.00000000000 0.44869905710 0.55130094290
0.00000000000 0.44851842523 0.55148154497
0.00000000000 0.44861257076 0.55138742924
0.00000000000 0.44845852256 0.55154150724
0.00000000000 0.44891452789 0.55108547211
0.00000000000 0.44881775975 0.55118227005
0.00000000000 0.44877460599 0.55122542381
0.00000000000 0.44870483875 0.55129516125
0.00000000000 0.44873008132 0.55126988888
1.00000000000 0.44825056195 0.55174946785
0.00000000000 0.44888806343 0.55111193657
0.00000000000 0.44846123457 0.55153876543
0.00000000000 0.44887053967 0.55112946033
0.00000000000 0.44885495305 0.55114501715
0.00000000000 0.44849237800 0.55150759220
0.00000000000 0.44882926345 0.55117070675
0.00000000000 0.44887942076 0.55112051964
0.00000000000 0.44789293408 0.55210709572
0.00000000000 0.44887045026 0.55112957954
0.00000000000 0.44883790612 0.55116212368
0.00000000000 0.44815045595 0.55184948444
0.00000000000 0.44866451621 0.55133551359
0.00000000000 0.44822549820 0.55177450180
0.00000000000 0.44873714447 0.55126285553
1.00000000000 0.44857144356 0.55142855644
0.00000000000 0.44848337770 0.55151659250
1.00000000000 0.44877126813 0.55122876167
0.00000000000 0.44841265678 0.55158734322
1.00000000000 0.44821637869 0.55178362131
0.00000000000 0.44900909066 0.55099087954
0.00000000000 0.44892373681 0.55107629299
0.00000000000 0.44857081771 0.55142921209
0.00000000000 0.44827583432 0.55172413588
0.00000000000 0.44844070077 0.55155926943
0.00000000000 0.44920367002 0.55079632998
0.00000000000 0.44914656878 0.55085343122
0.00000000000 0.44877040386 0.55122959614
0.00000000000 0.44833731651 0.55166268349
0.00000000000 0.44839090109 0.55160915852
0.00000000000 0.44909238815 0.55090767145
0.00000000000 0.44855099916 0.55144900084
0.00000000000 0.44828599691 0.55171400309
0.00000000000 0.44900435209 0.55099564791
1.00000000000 0.44854745269 0.55145257711
1.00000000000 0.44866377115 0.55133622885
1.00000000000 0.44846129417 0.55153870583
0.00000000000 0.44867047668 0.55132955313
0.00000000000 0.44857728481 0.55142265558
0.00000000000 0.44887560606 0.55112439394
0.00000000000 0.44837072492 0.55162924528
0.00000000000 0.44874006510 0.55125999451
1.00000000000 0.44915279746 0.55084717274
0.00000000000 0.44850966334 0.55149030685
1.00000000000 0.44921073318 0.55078929663
1.00000000000 0.44818708301 0.55181288719
0.00000000000 0.44916468859 0.55083531141
0.00000000000 0.44872155786 0.55127847195
0.00000000000 0.44857349992 0.55142647028
0.00000000000 0.44859802723 0.55140197277
0.00000000000 0.44905018806 0.55094981194
0.00000000000 0.44852671027 0.55147325993
0.00000000000 0.44865164161 0.55134832859
0.00000000000 0.44857054949 0.55142945051
0.00000000000 0.44860115647 0.55139881372
0.00000000000 0.44890674949 0.55109322071
0.00000000000 0.44820582867 0.55179417133
0.00000000000 0.44824638963 0.55175358057
1.00000000000 0.44855615497 0.55144387484
0.00000000000 0.44855472445 0.55144530535
0.00000000000 0.44857865572 0.55142128468
0.00000000000 0.44878441095 0.55121558905
1.00000000000 0.44876143336 0.55123859644
0.00000000000 0.44832313061 0.55167686939
0.00000000000 0.44867828488 0.55132174492
0.00000000000 0.44894579053 0.55105423927
0.00000000000 0.44878646731 0.55121356249
0.00000000000 0.44837242365 0.55162757635
0.00000000000 0.44855162501 0.55144840479
1.00000000000 0.44872123003 0.55127876997
0.00000000000 0.44887691736 0.55112308264
0.00000000000 0.44881728292 0.55118274689
1.00000000000 0.44795492291 0.55204510689
0.00000000000 0.44874083996 0.55125916004
0.00000000000 0.44843819737 0.55156177282
0.00000000000 0.44830748439 0.55169248581
1.00000000000 0.44884872437 0.55115127563
0.00000000000 0.44856286049 0.55143713951
0.00000000000 0.44830334187 0.55169665813
0.00000000000 0.44881218672 0.55118781328
0.00000000000 0.44825550914 0.55174452066
0.00000000000 0.44880238175 0.55119758844
0.00000000000 0.44847142696 0.55152857304
1.00000000000 0.44815894961 0.55184102058
0.00000000000 0.44895058870 0.55104941130
0.00000000000 0.44889983535 0.55110019445
0.00000000000 0.44896918535 0.55103081465
0.00000000000 0.44877374172 0.55122619867
0.00000000000 0.44884046912 0.55115956068
0.00000000000 0.44885501266 0.55114495754
1.00000000000 0.44818893075 0.55181109905
0.00000000000 0.44822248816 0.55177748203
0.00000000000 0.44837740064 0.55162256956
0.00000000000 0.44876125455 0.55123877525
1.00000000000 0.44789746404 0.55210250616
0.00000000000 0.44839105010 0.55160892010
1.00000000000 0.44892150164 0.55107849836
1.00000000000 0.44833296537 0.55166703463
1.00000000000 0.44869640470 0.55130362511
0.00000000000 0.44909578562 0.55090415478
0.00000000000 0.44892996550 0.55106997490
0.00000000000 0.44892576337 0.55107426643
0.00000000000 0.44809177518 0.55190819502
0.00000000000 0.44887873530 0.55112129450
0.00000000000 0.44906923175 0.55093079805
0.00000000000 0.44867923856 0.55132079124
0.00000000000 0.44875121117 0.55124872923
0.00000000000 0.44875496626 0.55124503374
1.00000000000 0.44888418913 0.55111575127
1.00000000000 0.44812062383 0.55187934637
0.00000000000 0.44841822982 0.55158179998
0.00000000000 0.44845589995 0.55154412985
0.00000000000 0.44870483875 0.55129516125
0.00000000000 0.44843137264 0.55156862736
0.00000000000 0.44876679778 0.55123317242
0.00000000000 0.44886896014 0.55113106966
1.00000000000 0.44874331355 0.55125665665
0.00000000000 0.44792115688 0.55207884312
0.00000000000 0.44861134887 0.55138868093
0.00000000000 0.44904679060 0.55095326900
1.00000000000 0.44869959354 0.55130040646
0.00000000000 0.44841489196 0.55158513784
0.00000000000 0.44817793369 0.55182206631
0.00000000000 0.44825258851 0.55174738169
0.00000000000 0.44866338372 0.55133664608
0.00000000000 0.44851633906 0.55148363113
0.00000000000 0.44903010130 0.55096989870
0.00000000000 0.44862699509 0.55137300491
0.00000000000 0.44890570641 0.55109429359
0.00000000000 0.44888857007 0.55111140013
0.00000000000 0.44857633114 0.55142360926
0.00000000000 0.44862318039 0.55137681961
0.00000000000 0.44822612405 0.55177384615
0.00000000000 0.44919076562 0.55080920458
0.00000000000 0.44838151336 0.55161851645
0.00000000000 0.44884049892 0.55115950108
0.00000000000 0.44904404879 0.55095589161
0.00000000000 0.44868251681 0.55131751299
0.00000000000 0.44862738252 0.55137264729
1.00000000000 0.44831523299 0.55168479681
0.00000000000 0.44832995534 0.55167001486
1.00000000000 0.44827154279 0.55172842741
0.00000000000 0.44883459806 0.55116540194
0.00000000000 0.44796866179 0.55203133821
0.00000000000 0.44818150997 0.55181849003
0.00000000000 0.44922152162 0.55077844858
1.00000000000 0.44887229800 0.55112773180
0.00000000000 0.44816979766 0.55183017254
0.00000000000 0.44860973954 0.55139029026
0.00000000000 0.44849601388 0.55150401592
0.00000000000 0.44902104139 0.55097895861
0.00000000000 0.44893535972 0.55106467009
0.00000000000 0.44895488024 0.55104511976
1.00000000000 0.44847595692 0.55152404308
0.00000000000 0.44887796044 0.55112206936
0.00000000000 0.44882220030 0.55117779970
1.00000000000 0.44819965959 0.55180037022
0.00000000000 0.44912913442 0.55087089539
0.00000000000 0.44875520468 0.55124485493
0.00000000000 0.44846454263 0.55153542757
0.00000000000 0.44872701168 0.55127304792
0.00000000000 0.44867134094 0.55132865906
0.00000000000 0.44874429703 0.55125570297
0.00000000000 0.44811481237 0.55188524723
0.00000000000 0.44832947850 0.55167049170
0.00000000000 0.44858670235 0.55141329765
0.00000000000 0.44849810004 0.55150187016
0.00000000000 0.44859063625 0.55140936375
0.00000000000 0.44870078564 0.55129921436
0.00000000000 0.44819808006 0.55180191994
0.00000000000 0.44829258323 0.55170738697
0.00000000000 0.44801732898 0.55198264122
0.00000000000 0.44855168462 0.55144828558
0.00000000000 0.44849920273 0.55150079727
0.00000000000 0.44904404879 0.55095589161
0.00000000000 0.44913694263 0.55086308718
0.00000000000 0.44864845276 0.55135148764
0.00000000000 0.44885477424 0.55114525557
0.00000000000 0.44870012999 0.55129981041
0.00000000000 0.44907110929 0.55092895031
0.00000000000 0.44825550914 0.55174452066
0.00000000000 0.44828730822 0.55171269178
0.00000000000 0.44862148166 0.55137854815
0.00000000000 0.44894450903 0.55105543137
0.00000000000 0.44912517071 0.55087482929
0.00000000000 0.44903144240 0.55096852779
0.00000000000 0.44843265414 0.55156737566
1.00000000000 0.44823232293 0.55176770687
0.00000000000 0.44854649901 0.55145347118
0.00000000000 0.44852733612 0.55147266388
0.00000000000 0.44866213202 0.55133789778
0.00000000000 0.44865381718 0.55134618282
0.00000000000 0.44878518581 0.55121481419
0.00000000000 0.44898241758 0.55101758242
0.00000000000 0.44849959016 0.55150038004
0.00000000000 0.44877743721 0.55122262239
0.00000000000 0.44904252887 0.55095750093
0.00000000000 0.44882488251 0.55117511749
0.00000000000 0.44806957245 0.55193048716
0.00000000000 0.44852447510 0.55147552490
0.00000000000 0.44867375493 0.55132621527
0.00000000000 0.44862982631 0.55137014389
0.00000000000 0.44886463881 0.55113536119
1.00000000000 0.44849622250 0.55150383711
0.00000000000 0.44886726141 0.55113273859
0.00000000000 0.44782909751 0.55217093229
0.00000000000 0.44851112366 0.55148887634
0.00000000000 0.44884771109 0.55115228891
0.00000000000 0.44860649109 0.55139356852
0.00000000000 0.44883567095 0.55116432905
1.00000000000 0.44894871116 0.55105131865
1.00000000000 0.44894599915 0.55105400085
0.00000000000 0.44858884811 0.55141115189
0.00000000000 0.44889774919 0.55110222101
1.00000000000 0.44900342822 0.55099660158
0.00000000000 0.44906771183 0.55093222857
0.00000000000 0.44862708449 0.55137288570
0.00000000000 0.44885435700 0.55114567280
0.00000000000 0.44815808535 0.55184197426
0.00000000000 0.44855657220 0.55144339800
0.00000000000 0.44854924083 0.55145072937
0.00000000000 0.44893375039 0.55106621981
0.00000000000 0.44857770205 0.55142229795
1.00000000000 0.44842347503 0.55157655478
1.00000000000 0.44883024693 0.55116975307
0.00000000000 0.44828024507 0.55171972513
0.00000000000 0.44878107309 0.55121892691
0.00000000000 0.44868439436 0.55131560564
0.00000000000 0.44916212559 0.55083793402
0.00000000000 0.44907283783 0.55092710257
0.00000000000 0.44871526957 0.55128473043
0.00000000000 0.44879424572 0.55120569468
0.00000000000 0.44877126813 0.55122870207
0.00000000000 0.44879654050 0.55120348930
1.00000000000 0.44902923703 0.55097073317
0.00000000000 0.44909480214 0.55090516806
0.00000000000 0.44915685058 0.55084317923
0.00000000000 0.44839838147 0.55160158873
0.00000000000 0.44897791743 0.55102205276
0.00000000000 0.44815465808 0.55184537172
0.00000000000 0.44881445169 0.55118554831
0.00000000000 0.44848155975 0.55151838064
0.00000000000 0.44884631038 0.55115371943
0.00000000000 0.44818079472 0.55181920528
0.00000000000 0.44831523299 0.55168479681
0.00000000000 0.44873252511 0.55126744509
1.00000000000 0.44862538576 0.55137461424
0.00000000000 0.44858029485 0.55141973495
0.00000000000 0.44824180007 0.55175817013
0.00000000000 0.44896686077 0.55103313923
1.00000000000 0.44844016433 0.55155986547
1.00000000000 0.44824317098 0.55175685883
0.00000000000 0.44894450903 0.55105543137
0.00000000000 0.44869628549 0.55130374432
0.00000000000 0.44900295138 0.55099701881
0.00000000000 0.44920054078 0.55079942942
1.00000000000 0.44831007719 0.55168986320
0.00000000000 0.44857516885 0.55142480135
0.00000000000 0.44815647602 0.55184346437
0.00000000000 0.44912457466 0.55087542534
0.00000000000 0.44912841916 0.55087155104
0.00000000000 0.44900530577 0.55099469423
0.00000000000 0.44828242064 0.55171757936
0.00000000000 0.44883170724 0.55116826296
0.00000000000 0.44856786728 0.55143213272
0.00000000000 0.44916808605 0.55083191395
0.00000000000 0.44829171896 0.55170834064
1.00000000000 0.44907373190 0.55092626810
0.00000000000 0.44872209430 0.55127793550
0.00000000000 0.44880330563 0.55119663477
1.00000000000 0.44898071885 0.55101931095
0.00000000000 0.44876098633 0.55123901367
0.00000000000 0.44841584563 0.55158412457
0.00000000000 0.44878098369 0.55121898651
0.00000000000 0.44862511754 0.55137485266
1.00000000000 0.44836962223 0.55163037777
0.00000000000 0.44850361347 0.55149638653
0.00000000000 0.44830486178 0.55169510841
0.00000000000 0.44824507833 0.55175489187
0.00000000000 0.44870808721 0.55129194260
0.00000000000 0.44810312986 0.55189687014
1.00000000000 0.44869244099 0.55130755901
0.00000000000 0.44864416122 0.55135583878
1.00000000000 0.44896560907 0.55103439093
0.00000000000 0.44886654615 0.55113345385
0.00000000000 0.44901397824 0.55098605156
0.00000000000 0.44855713844 0.55144286156
0.00000000000 0.44902759790 0.55097240210
1.00000000000 0.44845104218 0.55154895782
0.00000000000 0.44844168425 0.55155825615
0.00000000000 0.44834846258 0.55165147781
0.00000000000 0.44924494624 0.55075502396
0.00000000000 0.44848909974 0.55151087046
0.00000000000 0.44848743081 0.55151253939
0.00000000000 0.44905194640 0.55094808340
0.00000000000 0.44849759340 0.55150240660
0.00000000000 0.44881823659 0.55118173361
0.00000000000 0.44875940681 0.55124056339
0.00000000000 0.44847592711 0.55152410269
0.00000000000 0.44879344106 0.55120652914
0.00000000000 0.44836428761 0.55163574219
0.00000000000 0.44896888733 0.55103111267
0.00000000000 0.44904750586 0.55095249414
0.00000000000 0.44844514132 0.55155485868
1.00000000000 0.44895082712 0.55104917288
0.00000000000 0.44876801968 0.55123203993
0.00000000000 0.44834062457 0.55165940523
0.00000000000 0.44839742780 0.55160254240
0.00000000000 0.44891533256 0.55108463764
0.00000000000 0.44836828113 0.55163174868
0.00000000000 0.44902482629 0.55097514391
1.00000000000 0.44807130098 0.55192869902
0.00000000000 0.44883015752 0.55116987228
0.00000000000 0.44891795516 0.55108201504
0.00000000000 0.44843870401 0.55156135559
0.00000000000 0.44866824150 0.55133181810
0.00000000000 0.44867959619 0.55132043362
1.00000000000 0.44895747304 0.55104249716
0.00000000000 0.44848954678 0.55151051283
0.00000000000 0.44871369004 0.55128633976
0.00000000000 0.44860205054 0.55139797926
0.00000000000 0.44893604517 0.55106401443
1.00000000000 0.44866529107 0.55133467913
0.00000000000 0.44869774580 0.55130231380
0.00000000000 0.44850388169 0.55149614811
1.00000000000 0.44845560193 0.55154442787
0.00000000000 0.44847267866 0.55152732134
0.00000000000 0.44819670916 0.55180323124
0.00000000000 0.44854295254 0.55145704746
0.00000000000 0.44883099198 0.55116897821
0.00000000000 0.44858148694 0.55141854286
0.00000000000 0.44897091389 0.55102908611
1.00000000000 0.44891417027 0.55108577013
1.00000000000 0.44857054949 0.55142951012
0.00000000000 0.44862687588 0.55137312412
1.00000000000 0.44817188382 0.55182808638
0.00000000000 0.44939100742 0.55060899258
0.00000000000 0.44843482971 0.55156517029
0.00000000000 0.44812646508 0.55187356472
0.00000000000 0.44884306192 0.55115687847
1.00000000000 0.44875887036 0.55124115944
0.00000000000 0.44858381152 0.55141621828
0.00000000000 0.44858044386 0.55141955614
0.00000000000 0.44842833281 0.55157166719
0.00000000000 0.44846478105 0.55153518915
0.00000000000 0.44900685549 0.55099314451
0.00000000000 0.44866102934 0.55133897066
0.00000000000 0.44855976105 0.55144023895
0.00000000000 0.44880244136 0.55119758844
0.00000000000 0.44846162200 0.55153834820
0.00000000000 0.44882112741 0.55117887259
0.00000000000 0.44848048687 0.55151951313
0.00000000000 0.44870209694 0.55129790306
0.00000000000 0.44897398353 0.55102604628
0.00000000000 0.44870918989 0.55129081011
1.00000000000 0.44820889831 0.55179113150
1.00000000000 0.44875180721 0.55124819279
0.00000000000 0.44881489873 0.55118513107
1.00000000000 0.44878172874 0.55121827126
0.00000000000 0.44791251421 0.55208748579
0.00000000000 0.44918388128 0.55081611872
0.00000000000 0.44885972142 0.55114024878
0.00000000000 0.44908779860 0.55091220140
0.00000000000 0.44880363345 0.55119639635
1.00000000000 0.44828474522 0.55171525478
0.00000000000 0.44897234440 0.55102765560
0.00000000000 0.44836813211 0.55163186789
1.00000000000 0.44857937098 0.55142062902
0.00000000000 0.44863384962 0.55136615038
0.00000000000 0.44888964295 0.55111038685
0.00000000000 0.44910389185 0.55089616776
0.00000000000 0.44879171252 0.55120831728
0.00000000000 0.44830384851 0.55169618130
1.00000000000 0.44888722897 0.55111277103
0.00000000000 0.44837090373 0.55162906647
0.00000000000 0.44886454940 0.55113548040
0.00000000000 0.44909301400 0.55090701580
0.00000000000 0.44877165556 0.55122840405
0.00000000000 0.44852390885 0.55147606134
0.00000000000 0.44884338975 0.55115658045
0.00000000000 0.44893509150 0.55106490850
0.00000000000 0.44816011190 0.55183994770
0.00000000000 0.44893804193 0.55106198788
0.00000000000 0.44872143865 0.55127859116
0.00000000000 0.44900479913 0.55099523067
0.00000000000 0.44901415706 0.55098587275
0.00000000000 0.44825556874 0.55174440145
0.00000000000 0.44821143150 0.55178856850
0.00000000000 0.44851678610 0.55148321390
0.00000000000 0.44888418913 0.55111575127
0.00000000000 0.44899591804 0.55100411177
0.00000000000 0.44845122099 0.55154877901
0.00000000000 0.44876462221 0.55123531818
0.00000000000 0.44879245758 0.55120754242
1.00000000000 0.44820261002 0.55179738998
0.00000000000 0.44830760360 0.55169236660
0.00000000000 0.44866171479 0.55133825541
0.00000000000 0.44836896658 0.55163103342
0.00000000000 0.44897940755 0.55102056265
0.00000000000 0.44844508171 0.55155491829
0.00000000000 0.44882079959 0.55117923021
0.00000000000 0.44836497307 0.55163502693
0.00000000000 0.44823434949 0.55176568031
0.00000000000 0.44894734025 0.55105262995
0.00000000000 0.44867220521 0.55132782459
0.00000000000 0.44893351197 0.55106645823
0.00000000000 0.44885870814 0.55114126205
0.00000000000 0.44890069962 0.55109930038
0.00000000000 0.44878280163 0.55121713877
0.00000000000 0.44843435287 0.55156570673
0.00000000000 0.44888290763 0.55111712217
1.00000000000 0.44897615910 0.55102384090
0.00000000000 0.44856235385 0.55143767595
0.00000000000 0.44823002815 0.55176997185
0.00000000000 0.44864344597 0.55135655403
0.00000000000 0.44805368781 0.55194628239
0.00000000000 0.44880384207 0.55119615793
1.00000000000 0.44827201962 0.55172801018
0.00000000000 0.44849672914 0.55150330067
0.00000000000 0.44897347689 0.55102652311
0.00000000000 0.44884181023 0.55115818977
0.00000000000 0.44885885715 0.55114120245
1.00000000000 0.44836732745 0.55163264275
0.00000000000 0.44839569926 0.55160427094
0.00000000000 0.44880884886 0.55119115114
0.00000000000 0.44860026240 0.55139976740
0.00000000000 0.44835013151 0.55164992809
0.00000000000 0.44868832827 0.55131167173
0.00000000000 0.44868093729 0.55131906271
0.00000000000 0.44819828868 0.55180174112
0.00000000000 0.44903650880 0.55096352100
0.00000000000 0.44877469540 0.55122530460
1.00000000000 0.44827437401 0.55172568560
0.00000000000 0.44888037443 0.55111962557
0.00000000000 0.44884967804 0.55115032196
0.00000000000 0.44844311476 0.55155688524
0.00000000000 0.44852703810 0.55147296190
1.00000000000 0.44843667746 0.55156332254
0.00000000000 0.44869428873 0.55130571127
0.00000000000 0.44847419858 0.55152577162
0.00000000000 0.44903284311 0.55096715689
0.00000000000 0.44876977801 0.55123019218
0.00000000000 0.44888442755 0.55111557245
0.00000000000 0.44881784916 0.55118215084
0.00000000000 0.44864386320 0.55135613680
0.00000000000 0.44882819057 0.55117183924
1.00000000000 0.44856712222 0.55143284798
0.00000000000 0.44825318456 0.55174678564
0.00000000000 0.44887432456 0.55112570524
0.00000000000 0.44849488139 0.55150514841
0.00000000000 0.44859850407 0.55140149593
1.00000000000 0.44857865572 0.55142140388
0.00000000000 0.44828212261 0.55171787739
0.00000000000 0.44912043214 0.55087959766
0.00000000000 0.44870656729 0.55129343271
0.00000000000 0.44924718142 0.55075275898
0.00000000000 0.44890707731 0.55109298229
0.00000000000 0.44904085994 0.55095911026
0.00000000000 0.44879454374 0.55120545626
1.00000000000 0.44853109121 0.55146890879
0.00000000000 0.44865462184 0.55134534836
0.00000000000 0.44860678911 0.55139321089
0.00000000000 0.44904324412 0.55095672607
0.00000000000 0.44795507193 0.55204498768
0.00000000000 0.44914415479 0.55085587502
0.00000000000 0.44895282388 0.55104720592
1.00000000000 0.44889274240 0.55110728741
0.00000000000 0.44862526655 0.55137473345
0.00000000000 0.44899871945 0.55100131035
1.00000000000 0.44810375571 0.55189621449
0.00000000000 0.44892555475 0.55107450485
0.00000000000 0.44881892204 0.55118107796
0.00000000000 0.44865289330 0.55134713650
0.00000000000 0.44904327393 0.55095672607
0.00000000000 0.44897454977 0.55102539062
1.00000000000 0.44813862443 0.55186134577
0.00000000000 0.44882878661 0.55117118359
1.00000000000 0.44846299291 0.55153697729
0.00000000000 0.44865846634 0.55134147406
0.00000000000 0.44833207130 0.55166798830
0.00000000000 0.44894233346 0.55105769634
0.00000000000 0.44910967350 0.55089032650
0.00000000000 0.44871753454 0.55128246546
0.00000000000 0.44854378700 0.55145627260
0.00000000000 0.44889205694 0.55110794306
1.00000000000 0.44829773903 0.55170226097
1.00000000000 0.44890916348 0.55109083652
0.00000000000 0.44843512774 0.55156487226
0.00000000000 0.44896158576 0.55103838444
0.00000000000 0.44868674874 0.55131322145
0.00000000000 0.44872951508 0.55127048492
0.00000000000 0.44895476103 0.55104523897
0.00000000000 0.44880843163 0.55119156837
0.00000000000 0.44885846972 0.55114156008
0.00000000000 0.44864317775 0.55135685205
0.00000000000 0.44884064794 0.55115938187
0.00000000000 0.44848200679 0.55151796341
0.00000000000 0.44867679477 0.55132317543
0.00000000000 0.44865572453 0.55134427547
0.00000000000 0.44901624322 0.55098372698
1.00000000000 0.44838473201 0.55161523819
0.00000000000 0.44890278578 0.55109721422
0.00000000000 0.44875556231 0.55124437809
0.00000000000 0.44855037332 0.55144959688
0.00000000000 0.44893407822 0.55106592178
1.00000000000 0.44830551744 0.55169451237
1.00000000000 0.44855329394 0.55144673586
0.00000000000 0.44840776920 0.55159223080
0.00000000000 0.44862642884 0.55137354136
0.00000000000 0.44826552272 0.55173444748
1.00000000000 0.44856825471 0.55143171549
0.00000000000 0.44853648543 0.55146348476
0.00000000000 0.44878858328 0.55121141672
1.00000000000 0.44881442189 0.55118560791
0.00000000000 0.44907495379 0.55092507601
0.00000000000 0.44832277298 0.55167728662
0.00000000000 0.44860529900 0.55139470100
0.00000000000 0.44886374474 0.55113625526
0.00000000000 0.44881558418 0.55118441582
0.00000000000 0.44828817248 0.55171185732
1.00000000000 0.44896322489 0.55103677511
1.00000000000 0.44831103086 0.55168896914
1.00000000000 0.44834461808 0.55165541172
0.00000000000 0.44859856367 0.55140143633
0.00000000000 0.44877669215 0.55122333765
0.00000000000 0.44865876436 0.55134123564
0.00000000000 0.44860917330 0.55139088631
0.00000000000 0.44840610027 0.55159389973
0.00000000000 0.44891431928 0.55108571053
0.00000000000 0.44858649373 0.55141347647
0.00000000000 0.44825497270 0.55174505711
0.00000000000 0.44878372550 0.55121630430
1.00000000000 0.44823983312 0.55176013708
0.00000000000 0.44829523563 0.55170476437
0.00000000000 0.44866690040 0.55133306980
0.00000000000 0.44845664501 0.55154335499
0.00000000000 0.44896468520 0.55103534460
0.00000000000 0.44915613532 0.55084389448
0.00000000000 0.44848600030 0.55151396990
0.00000000000 0.44886273146 0.55113726854
1.00000000000 0.44847366214 0.55152630806
0.00000000000 0.44855773449 0.55144226551
1.00000000000 0.44858309627 0.55141687393
0.00000000000 0.44866368175 0.55133628845
0.00000000000 0.44804376364 0.55195623636
0.00000000000 0.44863024354 0.55136978626
1.00000000000 0.44827625155 0.55172371864
0.00000000000 0.44852405787 0.55147600174
0.00000000000 0.44876998663 0.55123007298
0.00000000000 0.44850891829 0.55149108171
0.00000000000 0.44880399108 0.55119603872
1.00000000000 0.44897803664 0.55102199316
1.00000000000 0.44855916500 0.55144083500
0.00000000000 0.44906550646 0.55093449354
0.00000000000 0.44906151295 0.55093848705
1.00000000000 0.44834026694 0.55165970325
0.00000000000 0.44916632771 0.55083370209
0.00000000000 0.44877910614 0.55122083426
0.00000000000 0.44849973917 0.55150026083
0.00000000000 0.44852834940 0.55147171021
0.00000000000 0.44861447811 0.55138552189
0.00000000000 0.44826069474 0.55173933506
1.00000000000 0.44833475351 0.55166524649
0.00000000000 0.44879302382 0.55120694637
0.00000000000 0.44876822829 0.55123174191
1.00000000000 0.44838249683 0.55161750317
0.00000000000 0.44888266921 0.55111730099
0.00000000000 0.44867864251 0.55132132769
0.00000000000 0.44880989194 0.55119007826
0.00000000000 0.44828554988 0.55171447992
0.00000000000 0.44870659709 0.55129337311
0.00000000000 0.44873374701 0.55126619339
0.00000000000 0.44881150126 0.55118846893
1.00000000000 0.44880548120 0.55119454861
0.00000000000 0.44880077243 0.55119925737
0.00000000000 0.44894737005 0.55105262995
0.00000000000 0.44823887944 0.55176115036
0.00000000000 0.44898885489 0.55101114511
0.00000000000 0.44873180985 0.55126816034
0.00000000000 0.44861686230 0.55138313770
0.00000000000 0.44854769111 0.55145233870
0.00000000000 0.44892352819 0.55107647181
1.00000000000 0.44884562492 0.55115437508
0.00000000000 0.44892358780 0.55107647181
0.00000000000 0.44877454638 0.55122548342
0.00000000000 0.44908246398 0.55091750622
0.00000000000 0.44920784235 0.55079221725
0.00000000000 0.44906169176 0.55093824863
0.00000000000 0.44901075959 0.55098921061
0.00000000000 0.44835150242 0.55164849758
1.00000000000 0.44892600179 0.55107396841
0.00000000000 0.44804370403 0.55195635557
0.00000000000 0.44892936945 0.55107063055
0.00000000000 0.44919967651 0.55080026388
0.00000000000 0.44838872552 0.55161124468
0.00000000000 0.44871369004 0.55128628016
0.00000000000 0.44860714674 0.55139279366
0.00000000000 0.44905143976 0.55094856024
0.00000000000 0.44865825772 0.55134171247
0.00000000000 0.44875165820 0.55124831200
1.00000000000 0.44861692190 0.55138307810
0.00000000000 0.44872197509 0.55127799511
0.00000000000 0.44900634885 0.55099368095
0.00000000000 0.44854977727 0.55145025253
0.00000000000 0.44880855083 0.55119144917
0.00000000000 0.44875201583 0.55124801397
0.00000000000 0.44789344072 0.55210655928
0.00000000000 0.44872164726 0.55127835274
1.00000000000 0.44908604026 0.55091392994
0.00000000000 0.44827133417 0.55172872543
0.00000000000 0.44856321812 0.55143684149
0.00000000000 0.44827422500 0.55172574520
0.00000000000 0.44848141074 0.55151861906
0.00000000000 0.44834512472 0.55165493488
1.00000000000 0.44817692041 0.55182307959
1.00000000000 0.44919738173 0.55080258846
0.00000000000 0.44887229800 0.55112773180
0.00000000000 0.44897976518 0.55102020502
0.00000000000 0.44857886434 0.55142110586
0.00000000000 0.44914990664 0.55085009336
0.00000000000 0.44854009151 0.55145984888
0.00000000000 0.44888478518 0.55111527443
0.00000000000 0.44876021147 0.55123978853
0.00000000000 0.44908413291 0.55091583729
0.00000000000 0.44843980670 0.55156016350
1.00000000000 0.44807589054 0.55192416906
0.00000000000 0.44872599840 0.55127406120
0.00000000000 0.44862651825 0.55137348175
0.00000000000 0.44913414121 0.55086582899
0.00000000000 0.44917955995 0.55082046986
0.00000000000 0.44837439060 0.55162560940
0.00000000000 0.44821286201 0.55178713799
0.00000000000 0.44831892848 0.55168110132
0.00000000000 0.44861808419 0.55138194561
0.00000000000 0.44903278351 0.55096721649
0.00000000000 0.44895228744 0.55104768276
0.00000000000 0.44909060001 0.55090939999
0.00000000000 0.44824403524 0.55175596476
0.00000000000 0.44895005226 0.55104994774
1.00000000000 0.44837379456 0.55162626505
0.00000000000 0.44865471125 0.55134528875
0.00000000000 0.44904074073 0.55095922947
0.00000000000 0.44870772958 0.55129230022
0.00000000000 0.44873106480 0.55126893520
0.00000000000 0.44857516885 0.55142480135
0.00000000000 0.44918113947 0.55081886053
0.00000000000 0.44870501757 0.55129498243
1.00000000000 0.44878578186 0.55121421814
0.00000000000 0.44886231422 0.55113768578
0.00000000000 0.44887518883 0.55112481117
0.00000000000 0.44874274731 0.55125725269
0.00000000000 0.44874620438 0.55125373602
0.00000000000 0.44838234782 0.55161762238
1.00000000000 0.44902276993 0.55097728968
0.00000000000 0.44891664386 0.55108332634
0.00000000000 0.44877475500 0.55122518539
0.00000000000 0.44876274467 0.55123722553
1.00000000000 0.44888919592 0.55111086369
0.00000000000 0.44861736894 0.55138266087
1.00000000000 0.44882625341 0.55117368698
0.00000000000 0.44877013564 0.55122983456
0.00000000000 0.44877707958 0.55122286081
0.00000000000 0.44881251454 0.55118751526
0.00000000000 0.44812452793 0.55187547207
0.00000000000 0.44815516472 0.55184483528
0.00000000000 0.44896370173 0.55103623867
0.00000000000 0.44879311323 0.55120688677
0.00000000000 0.44887349010 0.55112653971
0.00000000000 0.44835013151 0.55164992809
0.00000000000 0.44885638356 0.55114358664
0.00000000000 0.44800540805 0.55199462175
0.00000000000 0.44863459468 0.55136543512
0.00000000000 0.44853520393 0.55146479607
0.00000000000 0.44889119267 0.55110883713
1.00000000000 0.44861099124 0.55138897896
0.00000000000 0.44849520922 0.55150485039
0.00000000000 0.44859525561 0.55140471458
0.00000000000 0.44861355424 0.55138641596
0.00000000000 0.44760406017 0.55239593983
0.00000000000 0.44863912463 0.55136084557
0.00000000000 0.44881287217 0.55118715763
0.00000000000 0.44815975428 0.55184030533
0.00000000000 0.44868737459 0.55131262541
0.00000000000 0.44900140166 0.55099856853
1.00000000000 0.44886919856 0.55113077164
0.00000000000 0.44882380962 0.55117624998
0.00000000000 0.44883492589 0.55116510391
0.00000000000 0.44891604781 0.55108392239
0.00000000000 0.44896546006 0.55103451014
0.00000000000 0.44896137714 0.55103868246
0.00000000000 0.44927668571 0.55072325468
0.00000000000 0.44872954488 0.55127048492
0.00000000000 0.44847112894 0.55152881145
0.00000000000 0.44884440303 0.55115556717
0.00000000000 0.44880145788 0.55119854212
0.00000000000 0.44865682721 0.55134314299
1.00000000000 0.44810020924 0.55189979076
1.00000000000 0.44816207886 0.55183792114
0.00000000000 0.44862926006 0.55137079954
1.00000000000 0.44902440906 0.55097562075
0.00000000000 0.44865092635 0.55134910345
0.00000000000 0.44864839315 0.55135160685
0.00000000000 0.44844931364 0.55155068636
0.00000000000 0.44871819019 0.55128180981
0.00000000000 0.44910100102 0.55089902878
0.00000000000 0.44882670045 0.55117332935
0.00000000000 0.44874837995 0.55125159025
0.00000000000 0.44820615649 0.55179387331
0.00000000000 0.44861522317 0.55138474703
0.00000000000 0.44877243042 0.55122756958
0.00000000000 0.44818314910 0.55181682110
0.00000000000 0.44901394844 0.55098605156
0.00000000000 0.44851520658 0.55148476362
0.00000000000 0.44883391261 0.55116611719
1.00000000000 0.44914522767 0.55085474253
0.00000000000 0.44845104218 0.55154889822
0.00000000000 0.44780379534 0.55219620466
0.00000000000 0.44847610593 0.55152392387
1.00000000000 0.44869607687 0.55130392313
0.00000000000 0.44824138284 0.55175858736
0.00000000000 0.44837418199 0.55162578821
1.00000000000 0.44873765111 0.55126237869
0.00000000000 0.44854962826 0.55145037174
0.00000000000 0.44874513149 0.55125492811
0.00000000000 0.44869142771 0.55130857229
1.00000000000 0.44851493835 0.55148506165
0.00000000000 0.44895920157 0.55104076862
0.00000000000 0.44898381829 0.55101615191
0.00000000000 0.44882488251 0.55117511749
0.00000000000 0.44868418574 0.55131584406
0.00000000000 0.44806775451 0.55193227530
1.00000000000 0.44856944680 0.55143058300
0.00000000000 0.44888079166 0.55111920834
0.00000000000 0.44866767526 0.55133235455
0.00000000000 0.44909548759 0.55090451241
0.00000000000 0.44883161783 0.55116832256
0.00000000000 0.44891309738 0.55108690262
0.00000000000 0.44846835732 0.55153161287
0.00000000000 0.44875308871 0.55124694109
0.00000000000 0.44884249568 0.55115753412
0.00000000000 0.44852122664 0.55147874355
0.00000000000 0.44817638397 0.55182367563
0.00000000000 0.44821268320 0.55178731680
0.00000000000 0.44921073318 0.55078923702
0.00000000000 0.44851854444 0.55148148537
1.00000000000 0.44843986630 0.55156010389
0.00000000000 0.44806754589 0.55193245411
0.00000000000 0.44811040163 0.55188959837
0.00000000000 0.44884857535 0.55115145445
0.00000000000 0.44896641374 0.55103355646
0.00000000000 0.44878134131 0.55121868849
0.00000000000 0.44921949506 0.55078047514
0.00000000000 0.44832676649 0.55167323351
0.00000000000 0.44889587164 0.55110412836
0.00000000000 0.44900459051 0.55099540949
0.00000000000 0.44892695546 0.55107301474
0.00000000000 0.44834694266 0.55165308714
0.00000000000 0.44882908463 0.55117088556
0.00000000000 0.44841590524 0.55158412457
0.00000000000 0.44862881303 0.55137121677
0.00000000000 0.44899836183 0.55100160837
1.00000000000 0.44847878814 0.55152124166
0.00000000000 0.44913339615 0.55086660385
0.00000000000 0.44874733686 0.55125266314
0.00000000000 0.44845154881 0.55154842138
0.00000000000 0.44897833467 0.55102163553
1.00000000000 0.44842979312 0.55157023668
1.00000000000 0.44867327809 0.55132669210
0.00000000000 0.44850659370 0.55149346590
0.00000000000 0.44886529446 0.55113464594
0.00000000000 0.44886615872 0.55113387108
0.00000000000 0.44896051288 0.55103951693
0.00000000000 0.44900214672 0.55099785328
0.00000000000 0.44872990251 0.55127006769
0.00000000000 0.44875240326 0.55124759674
0.00000000000 0.44841441512 0.55158561468
0.00000000000 0.44896927476 0.55103069544
0.00000000000 0.44893240929 0.55106759071
0.00000000000 0.44869652390 0.55130344629
0.00000000000 0.44884133339 0.55115866661
1.00000000000 0.44858574867 0.55141425133
0.00000000000 0.44885674119 0.55114322901
0.00000000000 0.44859728217 0.55140268803
0.00000000000 0.44876921177 0.55123078823
1.00000000000 0.44862654805 0.55137348175
0.00000000000 0.44869175553 0.55130821466
1.00000000000 0.44885039330 0.55114960670
0.00000000000 0.44873216748 0.55126786232
0.00000000000 0.44899773598 0.55100226402
0.00000000000 0.44892346859 0.55107653141
0.00000000000 0.44883993268 0.55116009712
0.00000000000 0.44863483310 0.55136519670
0.00000000000 0.44893187284 0.55106812716
0.00000000000 0.44899174571 0.55100822449
0.00000000000 0.44892838597 0.55107158422
0.00000000000 0.44795835018 0.55204159021
0.00000000000 0.44888079166 0.55111926794
0.00000000000 0.44837185740 0.55162811279
0.00000000000 0.44867557287 0.55132448673
0.00000000000 0.44880279899 0.55119723082
0.00000000000 0.44834408164 0.55165594816
0.00000000000 0.44904947281 0.55095046759
0.00000000000 0.44918650389 0.55081355572
0.00000000000 0.44897782803 0.55102217197
0.00000000000 0.44910526276 0.55089473724
0.00000000000 0.44877475500 0.55122518539
0.00000000000 0.44845396280 0.55154603720
1.00000000000 0.44897791743 0.55102205276
0.00000000000 0.44888222218 0.55111777782
0.00000000000 0.44878751040 0.55121243000
0.00000000000 0.44834455848 0.55165547132
0.00000000000 0.44870156050 0.55129843950
1.00000000000 0.44906884432 0.55093115568
0.00000000000 0.44859132171 0.55140870810
0.00000000000 0.44855192304 0.55144804716
0.00000000000 0.44870340824 0.55129659176
0.00000000000 0.44887426496 0.55112570524
0.00000000000 0.44813421369 0.55186575651
0.00000000000 0.44874542952 0.55125457048
1.00000000000 0.44814231992 0.55185765028
1.00000000000 0.44864627719 0.55135369301
0.00000000000 0.44896906614 0.55103099346
0.00000000000 0.44881591201 0.55118411779
0.00000000000 0.44855955243 0.55144041777
0.00000000000 0.44884002209 0.55115997791
0.00000000000 0.44828599691 0.55171400309
0.00000000000 0.44898912311 0.55101084709
0.00000000000 0.44902932644 0.55097067356
1.00000000000 0.44854080677 0.55145919323
0.00000000000 0.44879251719 0.55120748281
0.00000000000 0.44862040877 0.55137956142
0.00000000000 0.44816637039 0.55183362961
0.00000000000 0.44876182079 0.55123817921
0.00000000000 0.44881662726 0.55118334293
0.00000000000 0.44865092635 0.55134910345
1.00000000000 0.44828593731 0.55171406269
1.00000000000 0.44877332449 0.55122667551
0.00000000000 0.44891425967 0.55108571053
0.00000000000 0.44874888659 0.55125105381
0.00000000000 0.44859483838 0.55140519142
0.00000000000 0.44912907481 0.55087089539
0.00000000000 0.44890692830 0.55109310150
0.00000000000 0.44825744629 0.55174255371
0.00000000000 0.44845676422 0.55154323578
0.00000000000 0.44913631678 0.55086368322
0.00000000000 0.44915157557 0.55084842443
0.00000000000 0.44829887152 0.55170112848
0.00000000000 0.44854712486 0.55145293474
0.00000000000 0.44882458448 0.55117541552
0.00000000000 0.44877192378 0.55122804642
0.00000000000 0.44873946905 0.55126053095
0.00000000000 0.44889414310 0.55110585690
0.00000000000 0.44888052344 0.55111944675
0.00000000000 0.44848382473 0.55151617527
0.00000000000 0.44910588861 0.55089414120
1.00000000000 0.44875553250 0.55124449730
0.00000000000 0.44895327091 0.55104666948
0.00000000000 0.44823667407 0.55176335573
0.00000000000 0.44917681813 0.55082315207
0.00000000000 0.44875535369 0.55124461651
0.00000000000 0.44858345389 0.55141651630
0.00000000000 0.44890564680 0.55109435320
0.00000000000 0.44858786464 0.55141210556
0.00000000000 0.44871020317 0.55128985643
1.00000000000 0.44885748625 0.55114251375
0.00000000000 0.44810336828 0.55189663172
1.00000000000 0.44804900885 0.55195105076
0.00000000000 0.44873735309 0.55126267672
1.00000000000 0.44907125831 0.55092877150
0.00000000000 0.44839024544 0.55160975456
0.00000000000 0.44898301363 0.55101698637
0.00000000000 0.44850599766 0.55149394274
0.00000000000 0.44859975576 0.55140018463
0.00000000000 0.44824790955 0.55175209045
0.00000000000 0.44910851121 0.55089151859
0.00000000000 0.44822758436 0.55177241564
1.00000000000 0.44819203019 0.55180799961
0.00000000000 0.44830763340 0.55169236660
0.00000000000 0.44893249869 0.55106753111
0.00000000000 0.44807159901 0.55192840099
0.00000000000 0.44850644469 0.55149352551
0.00000000000 0.44837233424 0.55162769556
0.00000000000 0.44864186645 0.55135816336
1.00000000000 0.44857394695 0.55142599344
0.00000000000 0.44829717278 0.55170285702
0.00000000000 0.44805529714 0.55194473267
0.00000000000 0.44843107462 0.55156892538
0.00000000000 0.44913515449 0.55086487532
0.00000000000 0.44805720448 0.55194276571
0.00000000000 0.44856879115 0.55143117905
0.00000000000 0.44863894582 0.55136108398
0.00000000000 0.44880917668 0.55119079351
0.00000000000 0.44797301292 0.55202692747
0.00000000000 0.44920527935 0.55079472065
0.00000000000 0.44892975688 0.55107021332
0.00000000000 0.44918146729 0.55081850290
0.00000000000 0.44833543897 0.55166453123
0.00000000000 0.44904610515 0.55095386505
1.00000000000 0.44911742210 0.55088251829
0.00000000000 0.44859650731 0.55140346289
0.00000000000 0.44868859649 0.55131137371
0.00000000000 0.44836166501 0.55163830519
0.00000000000 0.44872528315 0.55127471685
0.00000000000 0.44828829169 0.55171173811
0.00000000000 0.44822335243 0.55177664757
0.00000000000 0.44900780916 0.55099219084
0.00000000000 0.44884487987 0.55115514994
0.00000000000 0.44853323698 0.55146676302
1.00000000000 0.44836267829 0.55163735151
0.00000000000 0.44820338488 0.55179661512
0.00000000000 0.44839495420 0.55160504580
0.00000000000 0.44823729992 0.55176270008
0.00000000000 0.44815459847 0.55184537172
0.00000000000 0.44892844558 0.55107158422
1.00000000000 0.44832429290 0.55167573690
0.00000000000 0.44883698225 0.55116301775
0.00000000000 0.44868284464 0.55131715536
0.00000000000 0.44846290350 0.55153709650
0.00000000000 0.44914656878 0.55085343122
0.00000000000 0.44897520542 0.55102485418
0.00000000000 0.44902884960 0.55097115040
0.00000000000 0.44855380058 0.55144619942
0.00000000000 0.44867730141 0.55132263899
0.00000000000 0.44838756323 0.55161237717
0.00000000000 0.44895559549 0.55104434490
0.00000000000 0.44871526957 0.55128473043
0.00000000000 0.44899520278 0.55100482702
0.00000000000 0.44876736403 0.55123263597
0.00000000000 0.44866585732 0.55133408308
0.00000000000 0.44814321399 0.55185681581
0.00000000000 0.44912797213 0.55087202787
0.00000000000 0.44908973575 0.55091023445
0.00000000000 0.44883191586 0.55116802454
0.00000000000 0.44904506207 0.55095487833
0.00000000000 0.44889637828 0.55110365152
0.00000000000 0.44868353009 0.55131644011
0.00000000000 0.44858169556 0.55141830444
1.00000000000 0.44956722856 0.55043280125
0.00000000000 0.44855654240 0.55144351721
1.00000000000 0.44872412086 0.55127584934
0.00000000000 0.44896560907 0.55103439093
0.00000000000 0.44830340147 0.55169659853
0.00000000000 0.44878512621 0.55121487379
0.00000000000 0.44792181253 0.55207818747
0.00000000000 0.44887587428 0.55112409592
0.00000000000 0.44817200303 0.55182802677
1.00000000000 0.44884350896 0.55115652084
0.00000000000 0.44885143638 0.55114859343
0.00000000000 0.44851508737 0.55148488283
0.00000000000 0.44885519147 0.55114477873
0.00000000000 0.44867360592 0.55132633448
0.00000000000 0.44907930493 0.55092066526
0.00000000000 0.44858103991 0.55141890049
0.00000000000 0.44862347841 0.55137652159
1.00000000000 0.44842642546 0.55157357454
0.00000000000 0.44870448112 0.55129551888
0.00000000000 0.44829171896 0.55170822144
0.00000000000 0.44876089692 0.55123913288
0.00000000000 0.44868397713 0.55131608248
0.00000000000 0.44893735647 0.55106264353
0.00000000000 0.44822621346 0.55177378654
0.00000000000 0.44875559211 0.55124437809
0.00000000000 0.44878888130 0.55121117830
0.00000000000 0.44905218482 0.55094778538
0.00000000000 0.44836586714 0.55163407326
0.00000000000 0.44854009151 0.55145990849
0.00000000000 0.44838014245 0.55161988735
0.00000000000 0.44858705997 0.55141294003
0.00000000000 0.44838142395 0.55161857605
0.00000000000 0.44918963313 0.55081033707
0.00000000000 0.44883531332 0.55116474628
0.00000000000 0.44864550233 0.55135446787
0.00000000000 0.44895616174 0.55104386806
0.00000000000 0.44874423742 0.55125576258
0.00000000000 0.44867807627 0.55132192373
0.00000000000 0.44852894545 0.55147105455
1.00000000000 0.44851377606 0.55148619413
0.00000000000 0.44869080186 0.55130916834
0.00000000000 0.44890889525 0.55109113455
0.00000000000 0.44854888320 0.55145108700
1.00000000000 0.44892683625 0.55107319355
0.00000000000 0.44823205471 0.55176794529
0.00000000000 0.44808414578 0.55191588402
0.00000000000 0.44917145371 0.55082851648
0.00000000000 0.44844120741 0.55155879259
1.00000000000 0.44884502888 0.55115497112
0.00000000000 0.44828620553 0.55171382427
0.00000000000 0.44804802537 0.55195194483
0.00000000000 0.44872963428 0.55127036572
0.00000000000 0.44862905145 0.55137091875
0.00000000000 0.44872140884 0.55127859116
0.00000000000 0.44902718067 0.55097287893
0.00000000000 0.44861328602 0.55138671398
0.00000000000 0.44869855046 0.55130141973
0.00000000000 0.44875243306 0.55124753714
0.00000000000 0.44880309701 0.55119693279
0.00000000000 0.44908377528 0.55091625452
0.00000000000 0.44839373231 0.55160623789
0.00000000000 0.44878044724 0.55121958256
0.00000000000 0.44837623835 0.55162376165
0.00000000000 0.44846540689 0.55153465271
0.00000000000 0.44875994325 0.55124002695
0.00000000000 0.44844594598 0.55155402422
0.00000000000 0.44798138738 0.55201864243
0.00000000000 0.44853037596 0.55146968365
0.00000000000 0.44867262244 0.55132734776
0.00000000000 0.44870981574 0.55129021406
0.00000000000 0.44878172874 0.55121827126
0.00000000000 0.44847562909 0.55152440071
0.00000000000 0.44812789559 0.55187207460
0.00000000000 0.44842848182 0.55157154799
0.00000000000 0.44867542386 0.55132454634
0.00000000000 0.44864013791 0.55135989189
0.00000000000 0.44846662879 0.55153334141
0.00000000000 0.44865328074 0.55134671926
0.00000000000 0.44873547554 0.55126452446
0.00000000000 0.44870346785 0.55129653215
0.00000000000 0.44911357760 0.55088639259
0.00000000000 0.44817239046 0.55182766914
1.00000000000 0.44870555401 0.55129444599
0.00000000000 0.44849711657 0.55150288343
0.00000000000 0.44898557663 0.55101442337
0.00000000000 0.44896319509 0.55103677511
1.00000000000 0.44862657785 0.55137348175
0.00000000000 0.44875243306 0.55124753714
0.00000000000 0.44883415103 0.55116581917
1.00000000000 0.44875702262 0.55124300718
0.00000000000 0.44885554910 0.55114442110
0.00000000000 0.44884285331 0.55115717649
1.00000000000 0.44877445698 0.55122554302
0.00000000000 0.44894632697 0.55105364323
0.00000000000 0.44855675101 0.55144327879
0.00000000000 0.44829455018 0.55170547962
0.00000000000 0.44815006852 0.55184996128
0.00000000000 0.44889166951 0.55110836029
0.00000000000 0.44815948606 0.55184048414
1.00000000000 0.44820186496 0.55179816484
0.00000000000 0.44923356175 0.55076646805
1.00000000000 0.44882413745 0.55117589235
0.00000000000 0.44868063927 0.55131942034
0.00000000000 0.44893506169 0.55106490850
0.00000000000 0.44885206223 0.55114793777
0.00000000000 0.44857373834 0.55142623186
0.00000000000 0.44895008206 0.55104988813
0.00000000000 0.44909286499 0.55090713501
0.00000000000 0.44863146544 0.55136853456
1.00000000000 0.44864827394 0.55135172606
0.00000000000 0.44847309589 0.55152696371
0.00000000000 0.44874194264 0.55125808716
0.00000000000 0.44908118248 0.55091881752
0.00000000000 0.44877347350 0.55122649670
0.00000000000 0.44866028428 0.55133974552
0.00000000000 0.44852066040 0.55147927999
0.00000000000 0.44848346710 0.55151653290
0.00000000000 0.44825348258 0.55174654722
0.00000000000 0.44871199131 0.55128800869
0.00000000000 0.44877940416 0.55122059584
0.00000000000 0.44820025563 0.55179971457
0.00000000000 0.44798627496 0.55201369524
0.00000000000 0.44858336449 0.55141657591
0.00000000000 0.44888579845 0.55111426115
0.00000000000 0.44827306271 0.55172693729
1.00000000000 0.44887834787 0.55112165213
1.00000000000 0.44889533520 0.55110466480
0.00000000000 0.44888970256 0.55111026764
0.00000000000 0.44845542312 0.55154454708
0.00000000000 0.44914579391 0.55085420609
1.00000000000 0.44885927439 0.55114072561
0.00000000000 0.44848626852 0.55151373148
0.00000000000 0.44838970900 0.55161029100
1.00000000000 0.44846040010 0.55153965950
0.00000000000 0.44885858893 0.55114138126
0.00000000000 0.44838300347 0.55161702633
0.00000000000 0.44878974557 0.55121022463
0.00000000000 0.44850122929 0.55149877071
0.00000000000 0.44830891490 0.55169105530
1.00000000000 0.44856706262 0.55143290758
0.00000000000 0.44884365797 0.55115634203
0.00000000000 0.44912090898 0.55087906122
0.00000000000 0.44867831469 0.55132168531
0.00000000000 0.44873464108 0.55126535892
0.00000000000 0.44878992438 0.55121004581
0.00000000000 0.44873648882 0.55126351118
0.00000000000 0.44833323359 0.55166673660
0.00000000000 0.44883671403 0.55116325617
0.00000000000 0.44801333547 0.55198663473
0.00000000000 0.44829860330 0.55170136690
0.00000000000 0.44861018658 0.55138987303
0.00000000000 0.44873985648 0.55126011372
0.00000000000 0.44857141376 0.55142861605
0.00000000000 0.44886466861 0.55113530159
0.00000000000 0.44875007868 0.55124992132
0.00000000000 0.44860097766 0.55139899254
0.00000000000 0.44868180156 0.55131822824
0.00000000000 0.44824650884 0.55175352097
0.00000000000 0.44820758700 0.55179244280
0.00000000000 0.44905802608 0.55094194412
0.00000000000 0.44853913784 0.55146080256
1.00000000000 0.44842979312 0.55157023668
0.00000000000 0.44878959656 0.55121040344
0.00000000000 0.44873383641 0.55126619339
0.00000000000 0.44871866703 0.55128133297
0.00000000000 0.44903010130 0.55096989870
1.00000000000 0.44843798876 0.55156201124
0.00000000000 0.44874453545 0.55125546455
0.00000000000 0.44896528125 0.55103474855
0.00000000000 0.44879195094 0.55120801926
1.00000000000 0.44833025336 0.55166977644
0.00000000000 0.44877216220 0.55122786760
0.00000000000 0.44842919707 0.55157083273
0.00000000000 0.44840279222 0.55159717798
0.00000000000 0.44916057587 0.55083942413
0.00000000000 0.44852018356 0.55147981644
0.00000000000 0.44852119684 0.55147880316
0.00000000000 0.44893002510 0.55106991529
0.00000000000 0.44820949435 0.55179053545
0.00000000000 0.44823473692 0.55176526308
0.00000000000 0.44891700149 0.55108302832
1.00000000000 0.44862809777 0.55137187243
0.00000000000 0.44885009527 0.55114996433
0.00000000000 0.44871231914 0.55128765106
0.00000000000 0.44888266921 0.55111730099
0.00000000000 0.44900488853 0.55099511147
0.00000000000 0.44921860099 0.55078142881
1.00000000000 0.44810521603 0.55189478397
0.00000000000 0.44857543707 0.55142456293
0.00000000000 0.44874605536 0.55125397444
1.00000000000 0.44900858402 0.55099135637
0.00000000000 0.44907584786 0.55092412233
0.00000000000 0.44896703959 0.55103302002
0.00000000000 0.44878852367 0.55121147633
0.00000000000 0.44847324491 0.55152672529
0.00000000000 0.44861504436 0.55138492584
0.00000000000 0.44889396429 0.55110603571
0.00000000000 0.44870024920 0.55129975080
0.00000000000 0.44848087430 0.55151909590
0.00000000000 0.44833457470 0.55166542530
0.00000000000 0.44889804721 0.55110192299
0.00000000000 0.44899642467 0.55100351572
0.00000000000 0.44876426458 0.55123573542
0.00000000000 0.44870072603 0.55129927397
0.00000000000 0.44817063212 0.55182939768
1.00000000000 0.44828581810 0.55171418190
0.00000000000 0.44899854064 0.55100142956
0.00000000000 0.44883084297 0.55116915703
0.00000000000 0.44890201092 0.55109804869
1.00000000000 0.44879174232 0.55120825768
0.00000000000 0.44883200526 0.55116796494
0.00000000000 0.44868057966 0.55131942034
0.00000000000 0.44874772429 0.55125230551
0.00000000000 0.44857633114 0.55142366886
0.00000000000 0.44844999909 0.55155003071
0.00000000000 0.44901248813 0.55098748207
0.00000000000 0.44873988628 0.55126011372
0.00000000000 0.44863650203 0.55136346817
0.00000000000 0.44868686795 0.55131316185
0.00000000000 0.44822090864 0.55177909136
0.00000000000 0.44873911142 0.55126094818
0.00000000000 0.44883796573 0.55116206408
0.00000000000 0.44830909371 0.55169087648
0.00000000000 0.44896426797 0.55103570223
0.00000000000 0.44861266017 0.55138731003
0.00000000000 0.44903743267 0.55096256733
0.00000000000 0.44906270504 0.55093729496
0.00000000000 0.44855350256 0.55144649744
0.00000000000 0.44822907448 0.55177092552
0.00000000000 0.44843915105 0.55156081915
0.00000000000 0.44805896282 0.55194103718
0.00000000000 0.44917744398 0.55082255602
0.00000000000 0.44839599729 0.55160397291
0.00000000000 0.44865781069 0.55134218931
0.00000000000 0.44854155183 0.55145841837
0.00000000000 0.44915908575 0.55084091425
0.00000000000 0.44882148504 0.55117845535
0.00000000000 0.44906920195 0.55093079805
0.00000000000 0.44876778126 0.55123221874
0.00000000000 0.44874650240 0.55125343800
0.00000000000 0.44865417480 0.55134582520
0.00000000000 0.44855171442 0.55144828558
0.00000000000 0.44857227802 0.55142778158
0.00000000000 0.44816955924 0.55183047056
1.00000000000 0.44825217128 0.55174779892
0.00000000000 0.44890263677 0.55109739304
0.00000000000 0.44899994135 0.55100005865
0.00000000000 0.44881102443 0.55118900537
0.00000000000 0.44887626171 0.55112373829
0.00000000000 0.44883060455 0.55116939545
0.00000000000 0.44887453318 0.55112546682
1.00000000000 0.44831377268 0.55168622732
1.00000000000 0.44903802872 0.55096191168
1.00000000000 0.44802692533 0.55197304487
0.00000000000 0.44864991307 0.55135011673
0.00000000000 0.44806465507 0.55193531513
0.00000000000 0.44895428419 0.55104571581
0.00000000000 0.44902491570 0.55097508430
0.00000000000 0.44876497984 0.55123502016
0.00000000000 0.44903740287 0.55096256733
1.00000000000 0.44848489761 0.55151504278
0.00000000000 0.44797846675 0.55202150345
0.00000000000 0.44859898090 0.55140101910
0.00000000000 0.44822007418 0.55177992582
0.00000000000 0.44865798950 0.55134201050
0.00000000000 0.44890788198 0.55109208822
0.00000000000 0.44855618477 0.55144387484
0.00000000000 0.44888058305 0.55111944675
0.00000000000 0.44870018959 0.55129981041
1.00000000000 0.44833615422 0.55166381598
0.00000000000 0.44890686870 0.55109310150
1.00000000000 0.44851094484 0.55148905516
1.00000000000 0.44867897034 0.55132097006
0.00000000000 0.44821995497 0.55178004503
0.00000000000 0.44844031334 0.55155968666
0.00000000000 0.44882315397 0.55117690563
1.00000000000 0.44836914539 0.55163091421
0.00000000000 0.44918411970 0.55081582069
0.00000000000 0.44895797968 0.55104196072
0.00000000000 0.44851753116 0.55148243904
0.00000000000 0.44909453392 0.55090546608
0.00000000000 0.44895005226 0.55104994774
0.00000000000 0.44863888621 0.55136108398
0.00000000000 0.44927635789 0.55072361231
0.00000000000 0.44900250435 0.55099749565
0.00000000000 0.44887861609 0.55112141371
0.00000000000 0.44898846745 0.55101156235
0.00000000000 0.44911494851 0.55088508129
0.00000000000 0.44896051288 0.55103945732
0.00000000000 0.44840055704 0.55159944296
0.00000000000 0.44903811812 0.55096191168
0.00000000000 0.44860795140 0.55139201880
0.00000000000 0.44896492362 0.55103504658
1.00000000000 0.44880390167 0.55119609833
0.00000000000 0.44872885942 0.55127114058
1.00000000000 0.44874474406 0.55125528574
0.00000000000 0.44896775484 0.55103230476
0.00000000000 0.44893330336 0.55106675625
0.00000000000 0.44880786538 0.55119216442
0.00000000000 0.44876179099 0.55123817921
0.00000000000 0.44869226217 0.55130773783
0.00000000000 0.44862204790 0.55137795210
0.00000000000 0.44841361046 0.55158638954
0.00000000000 0.44834044576 0.55165952444
0.00000000000 0.44814172387 0.55185830593
0.00000000000 0.44879496098 0.55120503902
0.00000000000 0.44866994023 0.55133002996
0.00000000000 0.44900923967 0.55099081993
1.00000000000 0.44835343957 0.55164659023
0.00000000000 0.44881662726 0.55118340254
0.00000000000 0.44844862819 0.55155140162
0.00000000000 0.44795721769 0.55204278231
0.00000000000 0.44915699959 0.55084300041
0.00000000000 0.44888508320 0.55111491680
0.00000000000 0.44862142205 0.55137854815
0.00000000000 0.44896361232 0.55103641748
0.00000000000 0.44868144393 0.55131858587
0.00000000000 0.44855856895 0.55144143105
0.00000000000 0.44920170307 0.55079823732
1.00000000000 0.44881439209 0.55118560791
0.00000000000 0.44852229953 0.55147773027
0.00000000000 0.44865381718 0.55134612322
0.00000000000 0.44825869799 0.55174136162
0.00000000000 0.44872781634 0.55127221346
0.00000000000 0.44894155860 0.55105841160
1.00000000000 0.44803816080 0.55196183920
1.00000000000 0.44844973087 0.55155020952
1.00000000000 0.44873997569 0.55125999451
0.00000000000 0.44822886586 0.55177110434
0.00000000000 0.44881209731 0.55118787289
0.00000000000 0.44859007001 0.55140990019
0.00000000000 0.44879984856 0.55120015144
0.00000000000 0.44876289368 0.55123710632
0.00000000000 0.44834589958 0.55165410042
0.00000000000 0.44821500778 0.55178493261
0.00000000000 0.44885632396 0.55114370584
0.00000000000 0.44859153032 0.55140846968
0.00000000000 0.44922384620 0.55077612400
0.00000000000 0.44833141565 0.55166858435
0.00000000000 0.44840610027 0.55159389973
0.00000000000 0.44896551967 0.55103451014
0.00000000000 0.44876798987 0.55123203993
0.00000000000 0.44821864367 0.55178135633
1.00000000000 0.44832503796 0.55167502165
1.00000000000 0.44911298156 0.55088704824
0.00000000000 0.44903457165 0.55096542835
1.00000000000 0.44914346933 0.55085659027
0.00000000000 0.44854032993 0.55145967007
0.00000000000 0.44810903072 0.55189096928
0.00000000000 0.44849604368 0.55150395632
1.00000000000 0.44881197810 0.55118799210
1.00000000000 0.44847244024 0.55152755976
0.00000000000 0.44857493043 0.55142509937
0.00000000000 0.44885966182 0.55114036798
0.00000000000 0.44903910160 0.55096089840
0.00000000000 0.44873130322 0.55126869678
0.00000000000 0.44870078564 0.55129915476
0.00000000000 0.44888737798 0.55111265182
0.00000000000 0.44870179892 0.55129820108
1.00000000000 0.44859474897 0.55140531063
0.00000000000 0.44903254509 0.55096745491
0.00000000000 0.44880324602 0.55119675398
0.00000000000 0.44876772165 0.55123221874
1.00000000000 0.44898897409 0.55101102591
1.00000000000 0.44817563891 0.55182439089
0.00000000000 0.44870680571 0.55129319429
0.00000000000 0.44876801968 0.55123198032
0.00000000000 0.44809192419 0.55190801620
1.00000000000 0.44880047441 0.55119949579
1.00000000000 0.44844058156 0.55155938864
0.00000000000 0.44867599010 0.55132400990
0.00000000000 0.44877114892 0.55122882128
0.00000000000 0.44812580943 0.55187416077
0.00000000000 0.44864425063 0.55135571957
0.00000000000 0.44836065173 0.55163937807
0.00000000000 0.44893029332 0.55106973648
0.00000000000 0.44872328639 0.55127674341
0.00000000000 0.44860753417 0.55139243603
1.00000000000 0.44826453924 0.55173546076
1.00000000000 0.44876641035 0.55123358965
0.00000000000 0.44892412424 0.55107587576
0.00000000000 0.44877845049 0.55122148991
0.00000000000 0.44896116853 0.55103886127
0.00000000000 0.44839772582 0.55160224438
0.00000000000 0.44854333997 0.55145668983
1.00000000000 0.44894075394 0.55105918646
0.00000000000 0.44905439019 0.55094558001
0.00000000000 0.44874194264 0.55125808716
0.00000000000 0.44839888811 0.55160111189
0.00000000000 0.44882467389 0.55117535591
0.00000000000 0.44871860743 0.55128145218
0.00000000000 0.44896578789 0.55103421211
0.00000000000 0.44844451547 0.55155545473
1.00000000000 0.44873893261 0.55126106739
0.00000000000 0.44833061099 0.55166935921
0.00000000000 0.44851332903 0.55148673058
0.00000000000 0.44898933172 0.55101066828
0.00000000000 0.44855597615 0.55144399405
1.00000000000 0.44900894165 0.55099111795
0.00000000000 0.44869622588 0.55130380392
1.00000000000 0.44860097766 0.55139899254
1.00000000000 0.44867438078 0.55132561922
0.00000000000 0.44895789027 0.55104213953
0.00000000000 0.44888594747 0.55111408234
1.00000000000 0.44851064682 0.55148941278
0.00000000000 0.44873911142 0.55126094818
0.00000000000 0.44870939851 0.55129057169
1.00000000000 0.44849228859 0.55150771141
0.00000000000 0.44793617725 0.55206376314
0.00000000000 0.44864535332 0.55135464668
0.00000000000 0.44846618176 0.55153381824
0.00000000000 0.44820651412 0.55179351568
0.00000000000 0.44907110929 0.55092883110
0.00000000000 0.44917190075 0.55082815886
0.00000000000 0.44868227839 0.55131775141
0.00000000000 0.44867947698 0.55132055283
1.00000000000 0.44862046838 0.55137956142
0.00000000000 0.44844886661 0.55155116320
0.00000000000 0.44875571132 0.55124431849
0.00000000000 0.44872176647 0.55127823353
0.00000000000 0.44881939888 0.55118060112
0.00000000000 0.44829055667 0.55170941353
0.00000000000 0.44886422157 0.55113577843
0.00000000000 0.44838690758 0.55161309242
0.00000000000 0.44837480783 0.55162519217
0.00000000000 0.44894960523 0.55105036497
1.00000000000 0.44866064191 0.55133938789
0.00000000000 0.44837722182 0.55162274837
0.00000000000 0.44878149033 0.55121856928
1.00000000000 0.44879865646 0.55120134354
0.00000000000 0.44831386209 0.55168616772
1.00000000000 0.44829192758 0.55170804262
0.00000000000 0.44833222032 0.55166774988
0.00000000000 0.44885385036 0.55114620924
0.00000000000 0.44859895110 0.55140101910
0.00000000000 0.44903966784 0.55096036196
0.00000000000 0.44825869799 0.55174124241
0.00000000000 0.44900071621 0.55099928379
0.00000000000 0.44916105270 0.55083894730
0.00000000000 0.44835034013 0.55164968967
1.00000000000 0.44908627868 0.55091375113
1.00000000000 0.44868773222 0.55131226778
0.00000000000 0.44859024882 0.55140978098
0.00000000000 0.44872039557 0.55127960443
0.00000000000 0.44817572832 0.55182433128
0.00000000000 0.44863501191 0.55136495829
1.00000000000 0.44791460037 0.55208539963
0.00000000000 0.44900614023 0.55099385977
1.00000000000 0.44821316004 0.55178683996
0.00000000000 0.44888848066 0.55111151934
0.00000000000 0.44839090109 0.55160909891
0.00000000000 0.44887572527 0.55112427473
0.00000000000 0.44909137487 0.55090862513
0.00000000000 0.44827610254 0.55172389746
0.00000000000 0.44827204943 0.55172801018
0.00000000000 0.44887089729 0.55112910271
0.00000000000 0.44891783595 0.55108219385
0.00000000000 0.44864824414 0.55135178566
0.00000000000 0.44843187928 0.55156815052
0.00000000000 0.44827771187 0.55172222853
0.00000000000 0.44837349653 0.55162650347
0.00000000000 0.44843590260 0.55156409740
0.00000000000 0.44873860478 0.55126142502
0.00000000000 0.44808489084 0.55191510916
0.00000000000 0.44847533107 0.55152463913
0.00000000000 0.44825550914 0.55174446106
0.00000000000 0.44879946113 0.55120050907
0.00000000000 0.44814813137 0.55185192823
1.00000000000 0.44879686832 0.55120313168
0.00000000000 0.44830784202 0.55169218779
0.00000000000 0.44904121757 0.55095875263
1.00000000000 0.44827851653 0.55172145367
0.00000000000 0.44907820225 0.55092173815
0.00000000000 0.44884291291 0.55115705729
0.00000000000 0.44840729237 0.55159264803
0.00000000000 0.44902896881 0.55097103119
0.00000000000 0.44886183739 0.55113816261
0.00000000000 0.44871997833 0.55128002167
0.00000000000 0.44900792837 0.55099213123
0.00000000000 0.44864860177 0.55135136843
0.00000000000 0.44826674461 0.55173325539
0.00000000000 0.44895574450 0.55104428530
0.00000000000 0.44906091690 0.55093908310
0.00000000000 0.44889470935 0.55110532045
0.00000000000 0.44834411144 0.55165594816
0.00000000000 0.44845438004 0.55154556036
0.00000000000 0.44806325436 0.55193674564
0.00000000000 0.44880011678 0.55119991302
0.00000000000 0.44898676872 0.55101323128
0.00000000000 0.44895765185 0.55104231834
0.00000000000 0.44847047329 0.55152946711
1.00000000000 0.44807523489 0.55192482471
0.00000000000 0.44875231385 0.55124771595
1.00000000000 0.44862222672 0.55137783289
0.00000000000 0.44875195622 0.55124801397
0.00000000000 0.44893726707 0.55106276274
0.00000000000 0.44908675551 0.55091327429
0.00000000000 0.44901502132 0.55098491907
0.00000000000 0.44837945700 0.55162054300
0.00000000000 0.44829457998 0.55170542002
0.00000000000 0.44854608178 0.55145394802
0.00000000000 0.44849458337 0.55150538683
0.00000000000 0.44885706902 0.55114293098
1.00000000000 0.44878953695 0.55121052265
0.00000000000 0.44858637452 0.55141359568
0.00000000000 0.44861504436 0.55138498545
0.00000000000 0.44880327582 0.55119675398
0.00000000000 0.44888275862 0.55111724138
0.00000000000 0.44931143522 0.55068856478
0.00000000000 0.44849562645 0.55150437355
0.00000000000 0.44840916991 0.55159085989
0.00000000000 0.44889900088 0.55110096931
0.00000000000 0.44849920273 0.55150079727
1.00000000000 0.44818007946 0.55181992054
1.00000000000 0.44792470336 0.55207526684
0.00000000000 0.44864854217 0.55135148764
0.00000000000 0.44834354520 0.55165642500
0.00000000000 0.44843307137 0.55156689882
0.00000000000 0.44848331809 0.55151671171
1.00000000000 0.44844517112 0.55155485868
0.00000000000 0.44903033972 0.55096966028
0.00000000000 0.44866454601 0.55133545399
0.00000000000 0.44839611650 0.55160391331
0.00000000000 0.44840925932 0.55159068108
0.00000000000 0.44874176383 0.55125826597
0.00000000000 0.44849658012 0.55150336027
0.00000000000 0.44880726933 0.55119276047
0.00000000000 0.44855481386 0.55144524574
0.00000000000 0.44874995947 0.55125004053
0.00000000000 0.44910404086 0.55089598894
0.00000000000 0.44843378663 0.55156618357
0.00000000000 0.44877037406 0.55122959614
0.00000000000 0.44877326488 0.55122673512
0.00000000000 0.44831442833 0.55168557167
0.00000000000 0.44855597615 0.55144405365
1.00000000000 0.44887185097 0.55112814903
0.00000000000 0.44876721501 0.55123275518
0.00000000000 0.44895508885 0.55104494095
0.00000000000 0.44837799668 0.55162203312
0.00000000000 0.44877013564 0.55122983456
0.00000000000 0.44831821322 0.55168181658
0.00000000000 0.44883921742 0.55116075277
1.00000000000 0.44908154011 0.55091845989
0.00000000000 0.44868806005 0.55131191015
0.00000000000 0.44842076302 0.55157923698
0.00000000000 0.44886833429 0.55113172531
0.00000000000 0.44851970673 0.55148029327
1.00000000000 0.44872578979 0.55127424002
0.00000000000 0.44847309589 0.55152690411
0.00000000000 0.44882315397 0.55117684603
0.00000000000 0.44889590144 0.55110412836
1.00000000000 0.44852095842 0.55147904158
1.00000000000 0.44895610213 0.55104392767
0.00000000000 0.44877037406 0.55122959614
0.00000000000 0.44859597087 0.55140399933
0.00000000000 0.44882971048 0.55117028952
0.00000000000 0.44875302911 0.55124694109
0.00000000000 0.44875192642 0.55124807358
0.00000000000 0.44826883078 0.55173116922
0.00000000000 0.44821441174 0.55178558826
0.00000000000 0.44897675514 0.55102324486
0.00000000000 0.44841825962 0.55158179998
0.00000000000 0.44868013263 0.55131989717
0.00000000000 0.44855508208 0.55144494772
0.00000000000 0.44898548722 0.55101448298
0.00000000000 0.44845288992 0.55154711008
0.00000000000 0.44882312417 0.55117690563
1.00000000000 0.44876399636 0.55123597383
0.00000000000 0.44809809327 0.55190187693
0.00000000000 0.44877642393 0.55122363567
1.00000000000 0.44868159294 0.55131840706
0.00000000000 0.44877976179 0.55122023821
0.00000000000 0.44856372476 0.55143630505
0.00000000000 0.44900220633 0.55099785328
0.00000000000 0.44841662049 0.55158334970
0.00000000000 0.44816511869 0.55183488131
1.00000000000 0.44871526957 0.55128473043
0.00000000000 0.44859945774 0.55140060186
0.00000000000 0.44890472293 0.55109524727
0.00000000000 0.44880360365 0.55119639635
0.00000000000 0.44895696640 0.55104309320
0.00000000000 0.44863599539 0.55136400461
0.00000000000 0.44900608063 0.55099391937
0.00000000000 0.44833678007 0.55166316032
0.00000000000 0.44897115231 0.55102890730
0.00000000000 0.44865810871 0.55134195089
0.00000000000 0.44874835014 0.55125164986
0.00000000000 0.44855248928 0.55144751072
0.00000000000 0.44836494327 0.55163508654
1.00000000000 0.44885739684 0.55114257336
0.00000000000 0.44896072149 0.55103927851
0.00000000000 0.44815605879 0.55184400082
0.00000000000 0.44861960411 0.55138039589
0.00000000000 0.44808626175 0.55191367865
0.00000000000 0.44826886058 0.55173110962
1.00000000000 0.44824108481 0.55175888538
0.00000000000 0.44851246476 0.55148750544
0.00000000000 0.44879493117 0.55120503902
0.00000000000 0.44874286652 0.55125713348
0.00000000000 0.44864770770 0.55135232210
0.00000000000 0.44860625267 0.55139374733
0.00000000000 0.44818234444 0.55181771517
0.00000000000 0.44863829017 0.55136173964
0.00000000000 0.44879594445 0.55120402575
1.00000000000 0.44882589579 0.55117410421
0.00000000000 0.44853660464 0.55146336555
0.00000000000 0.44880858064 0.55119138956
0.00000000000 0.44845402241 0.55154603720
0.00000000000 0.44852083921 0.55147916079
1.00000000000 0.44932109118 0.55067884922
0.00000000000 0.44891604781 0.55108392239
1.00000000000 0.44873940945 0.55126053095
0.00000000000 0.44807398319 0.55192601681
0.00000000000 0.44916120172 0.55083882809
0.00000000000 0.44867613912 0.55132389069
0.00000000000 0.44909861684 0.55090141296
0.00000000000 0.44875839353 0.55124157667
0.00000000000 0.44905418158 0.55094587803
0.00000000000 0.44920164347 0.55079835653
0.00000000000 0.44844263792 0.55155736208
0.00000000000 0.44880330563 0.55119675398
0.00000000000 0.44844543934 0.55155456066
0.00000000000 0.44880577922 0.55119419098
0.00000000000 0.44846355915 0.55153644085
1.00000000000 0.44835898280 0.55164098740
1.00000000000 0.44886311889 0.55113691092
0.00000000000 0.44908225536 0.55091774464
0.00000000000 0.44903084636 0.55096918344
0.00000000000 0.44865423441 0.55134576559
0.00000000000 0.44860938191 0.55139064789
0.00000000000 0.44875520468 0.55124485493
0.00000000000 0.44842532277 0.55157464743
0.00000000000 0.44818350673 0.55181652308
0.00000000000 0.44901812077 0.55098187923
0.00000000000 0.44877743721 0.55122262239
1.00000000000 0.44816759229 0.55183243752
0.00000000000 0.44867932796 0.55132067204
0.00000000000 0.44861218333 0.55138778687
0.00000000000 0.44778704643 0.55221301317
0.00000000000 0.44903308153 0.55096691847
0.00000000000 0.44902789593 0.55097210407
0.00000000000 0.44856324792 0.55143672228
0.00000000000 0.44893017411 0.55106979609
0.00000000000 0.44822955132 0.55177044868
0.00000000000 0.44873186946 0.55126810074
0.00000000000 0.44883820415 0.55116176605
0.00000000000 0.44892132282 0.55107867718
0.00000000000 0.44876179099 0.55123823881
1.00000000000 0.44897261262 0.55102735758
0.00000000000 0.44886967540 0.55113029480
0.00000000000 0.44822680950 0.55177319050
0.00000000000 0.44858431816 0.55141562223
0.00000000000 0.44890674949 0.55109322071
0.00000000000 0.44821253419 0.55178749561
0.00000000000 0.44870701432 0.55129295588
1.00000000000 0.44900259376 0.55099737644
0.00000000000 0.44903814793 0.55096185207
1.00000000000 0.44900444150 0.55099558830
0.00000000000 0.44835624099 0.55164372921
0.00000000000 0.44856125116 0.55143874884
0.00000000000 0.44856503606 0.55143499374
0.00000000000 0.44846743345 0.55153250694
0.00000000000 0.44874167442 0.55125832558
0.00000000000 0.44904318452 0.55095678568
0.00000000000 0.44839009643 0.55160987377
0.00000000000 0.44842785597 0.55157214403
0.00000000000 0.44876605272 0.55123394728
1.00000000000 0.44887283444 0.55112719536
0.00000000000 0.44855740666 0.55144256353
0.00000000000 0.44919770956 0.55080229044
0.00000000000 0.44868448377 0.55131548643
0.00000000000 0.44874498248 0.55125498772
1.00000000000 0.44884008169 0.55115991831
0.00000000000 0.44880399108 0.55119603872
0.00000000000 0.44868317246 0.55131685734
0.00000000000 0.44887140393 0.55112856627
0.00000000000 0.44863274693 0.55136722326
0.00000000000 0.44878152013 0.55121845007
1.00000000000 0.44888165593 0.55111831427
1.00000000000 0.44827568531 0.55172431469
1.00000000000 0.44890266657 0.55109727383
0.00000000000 0.44916504622 0.55083495378
0.00000000000 0.44883096218 0.55116903782
1.00000000000 0.44829845428 0.55170154572
1.00000000000 0.44893604517 0.55106389523
0.00000000000 0.44911894202 0.55088108778
0.00000000000 0.44871962070 0.55128031969
0.00000000000 0.44919613004 0.55080389977
0.00000000000 0.44902175665 0.55097818375
0.00000000000 0.44901177287 0.55098819733
1.00000000000 0.44831493497 0.55168503523
0.00000000000 0.44892153144 0.55107849836
0.00000000000 0.44840025902 0.55159980059
0.00000000000 0.44878867269 0.55121135712
0.00000000000 0.44906792045 0.55093204975
0.00000000000 0.44843819737 0.55156177282
0.00000000000 0.44826403260 0.55173599720
0.00000000000 0.44918787479 0.55081212521
1.00000000000 0.44839766622 0.55160230398
0.00000000000 0.44879245758 0.55120754242
0.00000000000 0.44858568907 0.55141431093
0.00000000000 0.44886812568 0.55113190413
0.00000000000 0.44884079695 0.55115920305
0.00000000000 0.44861701131 0.55138301849
1.00000000000 0.44835782051 0.55164211988
0.00000000000 0.44891849160 0.55108153820
0.00000000000 0.44819828868 0.55180174112
0.00000000000 0.44844189286 0.55155813694
0.00000000000 0.44904455543 0.55095547438
0.00000000000 0.44896045327 0.55103951693
0.00000000000 0.44890034199 0.55109965801
0.00000000000 0.44908949733 0.55091047287
1.00000000000 0.44823271036 0.55176728964
0.00000000000 0.44911670685 0.55088329315
0.00000000000 0.44876122475 0.55123877525
0.00000000000 0.44849020243 0.55150973797
0.00000000000 0.44800472260 0.55199527740
1.00000000000 0.44868662953 0.55131340027
0.00000000000 0.44838833809 0.55161166191
1.00000000000 0.44817107916 0.55182898045
0.00000000000 0.44854658842 0.55145341158
0.00000000000 0.44888651371 0.55111342669
0.00000000000 0.44883236289 0.55116760731
0.00000000000 0.44872575998 0.55127424002
0.00000000000 0.44827416539 0.55172580481
0.00000000000 0.44888237119 0.55111765862
0.00000000000 0.44902217388 0.55097782612
0.00000000000 0.44920971990 0.55079025030
0.00000000000 0.44856199622 0.55143797398
0.00000000000 0.44898635149 0.55101364851
0.00000000000 0.44843268394 0.55156731606
0.00000000000 0.44910976291 0.55089020729
0.00000000000 0.44876989722 0.55123007298
0.00000000000 0.44828155637 0.55171841383
1.00000000000 0.44885587692 0.55114412308
0.00000000000 0.44880753756 0.55119246244
0.00000000000 0.44831675291 0.55168330669
0.00000000000 0.44826507568 0.55173492432
0.00000000000 0.44872921705 0.55127078295
0.00000000000 0.44907242060 0.55092757940
0.00000000000 0.44909325242 0.55090671778
0.00000000000 0.44840258360 0.55159741640
0.00000000000 0.44895428419 0.55104571581
0.00000000000 0.44866928458 0.55133068562
0.00000000000 0.44876912236 0.55123090744
0.00000000000 0.44856357574 0.55143636465
0.00000000000 0.44841897488 0.55158096552
0.00000000000 0.44799250364 0.55200749636
0.00000000000 0.44835031033 0.55164968967
0.00000000000 0.44839742780 0.55160260201
0.00000000000 0.44892153144 0.55107849836
0.00000000000 0.44847142696 0.55152857304
0.00000000000 0.44861519337 0.55138480663
0.00000000000 0.44863235950 0.55136764050
0.00000000000 0.44861018658 0.55138987303
0.00000000000 0.44840091467 0.55159902573
0.00000000000 0.44838437438 0.55161559582
0.00000000000 0.44902434945 0.55097568035
0.00000000000 0.44879156351 0.55120837688
1.00000000000 0.44832584262 0.55167412758
0.00000000000 0.44868901372 0.55131101608
0.00000000000 0.44826078415 0.55173921585
0.00000000000 0.44904121757 0.55095875263
0.00000000000 0.44895324111 0.55104678869
1.00000000000 0.44871985912 0.55128014088
0.00000000000 0.44865810871 0.55134195089
0.00000000000 0.44838258624 0.55161738396
0.00000000000 0.44877308607 0.55122691393
0.00000000000 0.44884118438 0.55115884542
0.00000000000 0.44848373532 0.55151629448
0.00000000000 0.44871327281 0.55128669739
0.00000000000 0.44898432493 0.55101561546
0.00000000000 0.44869127870 0.55130869150
0.00000000000 0.44880685210 0.55119317770
0.00000000000 0.44893366098 0.55106633902
0.00000000000 0.44898146391 0.55101853609
0.00000000000 0.44891124964 0.55108875036
1.00000000000 0.44873389602 0.55126613379
0.00000000000 0.44879576564 0.55120420456
0.00000000000 0.44852045178 0.55147951841
1.00000000000 0.44842964411 0.55157035589
0.00000000000 0.44894370437 0.55105626583
0.00000000000 0.44841960073 0.55158042908
0.00000000000 0.44905945659 0.55094051361
0.00000000000 0.44905146956 0.55094856024
0.00000000000 0.44864135981 0.55135864019
0.00000000000 0.44857597351 0.55142396688
0.00000000000 0.44887417555 0.55112582445
0.00000000000 0.44888854027 0.55111140013
0.00000000000 0.44855999947 0.55144000053
1.00000000000 0.44843155146 0.55156844854
0.00000000000 0.44848355651 0.55151641369
0.00000000000 0.44867354631 0.55132645369
0.00000000000 0.44865107536 0.55134886503
0.00000000000 0.44889405370 0.55110591650
0.00000000000 0.44883996248 0.55116003752
0.00000000000 0.44824725389 0.55175274611
1.00000000000 0.44911473989 0.55088520050
0.00000000000 0.44901707768 0.55098289251
0.00000000000 0.44867146015 0.55132853985
0.00000000000 0.44928637147 0.55071359873
0.00000000000 0.44877856970 0.55122143030
0.00000000000 0.44859355688 0.55140644312
0.00000000000 0.44819551706 0.55180448294
0.00000000000 0.44941794872 0.55058205128
1.00000000000 0.44840109348 0.55159890652
0.00000000000 0.44856357574 0.55143648386
0.00000000000 0.44859576225 0.55140423775
0.00000000000 0.44841241837 0.55158758163
0.00000000000 0.44901403785 0.55098593235
0.00000000000 0.44885668159 0.55114328861
0.00000000000 0.44869810343 0.55130195618
0.00000000000 0.44828936458 0.55171066523
0.00000000000 0.44808489084 0.55191504955
0.00000000000 0.44825053215 0.55174946785
0.00000000000 0.44836655259 0.55163341761
1.00000000000 0.44879201055 0.55120801926
1.00000000000 0.44824585319 0.55175411701
1.00000000000 0.44890600443 0.55109405518
0.00000000000 0.44879654050 0.55120348930
0.00000000000 0.44879698753 0.55120295286
0.00000000000 0.44838929176 0.55161070824
0.00000000000 0.44836995006 0.55163007975
0.00000000000 0.44891706109 0.55108290911
0.00000000000 0.44883283973 0.55116719007
0.00000000000 0.44889828563 0.55110174417
0.00000000000 0.44845888019 0.55154109001
0.00000000000 0.44878467917 0.55121529102
0.00000000000 0.44827276468 0.55172723532
0.00000000000 0.44859611988 0.55140388012
0.00000000000 0.44865557551 0.55134439468
0.00000000000 0.44915744662 0.55084252357
1.00000000000 0.44872137904 0.55127859116
0.00000000000 0.44855916500 0.55144083500
0.00000000000 0.44827550650 0.55172449350
0.00000000000 0.44831892848 0.55168104172
0.00000000000 0.44834789634 0.55165213346
0.00000000000 0.44822621346 0.55177378654
0.00000000000 0.44820743799 0.55179256201
0.00000000000 0.44877612591 0.55122387409
0.00000000000 0.44838893414 0.55161106586
0.00000000000 0.44921696186 0.55078297853
0.00000000000 0.44887417555 0.55112582445
0.00000000000 0.44891417027 0.55108577013
0.00000000000 0.44915097952 0.55084902048
0.00000000000 0.44900929928 0.55099070072
0.00000000000 0.44914904237 0.55085098743
0.00000000000 0.44899076223 0.55100923777
0.00000000000 0.44915142655 0.55084854364
1.00000000000 0.44851312041 0.55148690939
1.00000000000 0.44852805138 0.55147188902
0.00000000000 0.44900330901 0.55099672079
0.00000000000 0.44897639751 0.55102360249
0.00000000000 0.44881811738 0.55118191242
0.00000000000 0.44894972444 0.55105024576
0.00000000000 0.44875541329 0.55124455690
0.00000000000 0.44871473312 0.55128526688
0.00000000000 0.44857743382 0.55142253637
0.00000000000 0.44875070453 0.55124926567
0.00000000000 0.44817781448 0.55182218552
0.00000000000 0.44824084640 0.55175918341
0.00000000000 0.44792804122 0.55207192898
0.00000000000 0.44833511114 0.55166494846
0.00000000000 0.44870781898 0.55129218102
0.00000000000 0.44891402125 0.55108600855
0.00000000000 0.44847351313 0.55152642727
0.00000000000 0.44844973087 0.55155020952
0.00000000000 0.44869041443 0.55130958557
0.00000000000 0.44912829995 0.55087167025
0.00000000000 0.44816985726 0.55183011293
1.00000000000 0.44859105349 0.55140894651
1.00000000000 0.44827848673 0.55172151327
0.00000000000 0.44867455959 0.55132544041
0.00000000000 0.44819539785 0.55180460215
0.00000000000 0.44861820340 0.55138182640
0.00000000000 0.44843903184 0.55156093836
0.00000000000 0.44880619645 0.55119377375
1.00000000000 0.44865232706 0.55134767294
0.00000000000 0.44814610481 0.55185389519
0.00000000000 0.44817388058 0.55182611942
0.00000000000 0.44883024693 0.55116981268
0.00000000000 0.44873487949 0.55126512051
0.00000000000 0.44846475124 0.55153524876
0.00000000000 0.44884821773 0.55115175247
0.00000000000 0.44786176085 0.55213826895
0.00000000000 0.44853398204 0.55146604776
0.00000000000 0.44849491119 0.55150508881
0.00000000000 0.44795027375 0.55204969645
0.00000000000 0.44857248664 0.55142754316
0.00000000000 0.44842270017 0.55157727003
0.00000000000 0.44858437777 0.55141556263
0.00000000000 0.44879063964 0.55120933056
0.00000000000 0.44833981991 0.55166018009
1.00000000000 0.44874194264 0.55125808716
0.00000000000 0.44832402468 0.55167597532
1.00000000000 0.44864258170 0.55135738850
0.00000000000 0.44879913330 0.55120086670
0.00000000000 0.44895949960 0.55104047060
0.00000000000 0.44893726707 0.55106270313
0.00000000000 0.44865238667 0.55134761333
0.00000000000 0.44858753681 0.55141246319
0.00000000000 0.44876232743 0.55123764277
0.00000000000 0.44864040613 0.55135959387
0.00000000000 0.44885385036 0.55114609003
0.00000000000 0.44815757871 0.55184245110
0.00000000000 0.44864806533 0.55135196447
0.00000000000 0.44888499379 0.55111503601
0.00000000000 0.44865989685 0.55134010315
0.00000000000 0.44860425591 0.55139577389
0.00000000000 0.44880792499 0.55119204521
0.00000000000 0.44853174686 0.55146819353
0.00000000000 0.44866546988 0.55133455992
0.00000000000 0.44916611910 0.55083394051
0.00000000000 0.44827291369 0.55172705650
1.00000000000 0.44894629717 0.55105370283
0.00000000000 0.44884461164 0.55115538836
0.00000000000 0.44874849916 0.55125153065
0.00000000000 0.44896736741 0.55103266239
0.00000000000 0.44885393977 0.55114603043
1.00000000000 0.44840046763 0.55159950256
0.00000000000 0.44808426499 0.55191570520
1.00000000000 0.44844284654 0.55155718327
0.00000000000 0.44866013527 0.55133980513
0.00000000000 0.44912645221 0.55087357759
0.00000000000 0.44867822528 0.55132180452
1.00000000000 0.44848537445 0.55151462555
0.00000000000 0.44837138057 0.55162864923
0.00000000000 0.44877156615 0.55122840405
0.00000000000 0.44872030616 0.55127966404
0.00000000000 0.44853830338 0.55146169662
0.00000000000 0.44879281521 0.55120718479
0.00000000000 0.44877231121 0.55122768879
0.00000000000 0.44867977500 0.55132025480
0.00000000000 0.44850251079 0.55149751902
1.00000000000 0.44863685966 0.55136317015
0.00000000000 0.44883006811 0.55116993189
0.00000000000 0.44828149676 0.55171847343
0.00000000000 0.44910693169 0.55089306831
1.00000000000 0.44888952374 0.55111050606
0.00000000000 0.44813132286 0.55186867714
0.00000000000 0.44824135303 0.55175858736
0.00000000000 0.44851580262 0.55148422718
0.00000000000 0.44861221313 0.55138772726
0.00000000000 0.44850760698 0.55149233341
0.00000000000 0.44845315814 0.55154681206
0.00000000000 0.44869241118 0.55130755901
0.00000000000 0.44860526919 0.55139476061
0.00000000000 0.44877928495 0.55122071505
0.00000000000 0.44899606705 0.55100393295
0.00000000000 0.44871622324 0.55128383636
0.00000000000 0.44912463427 0.55087536573
0.00000000000 0.44846984744 0.55153012276
0.00000000000 0.44805613160 0.55194383860
0.00000000000 0.44872561097 0.55127441883
0.00000000000 0.44871640205 0.55128359795
0.00000000000 0.44893002510 0.55106997490
1.00000000000 0.44864806533 0.55135196447
0.00000000000 0.44850522280 0.55149477720
0.00000000000 0.44891265035 0.55108731985
0.00000000000 0.44893488288 0.55106508732
0.00000000000 0.44848921895 0.55151075125
0.00000000000 0.44855234027 0.55144762993
0.00000000000 0.44824439287 0.55175560713
0.00000000000 0.44844973087 0.55155020952
0.00000000000 0.44903495908 0.55096501112
0.00000000000 0.44872963428 0.55127036572
0.00000000000 0.44881996512 0.55118006468
0.00000000000 0.44847631454 0.55152368546
0.00000000000 0.44879880548 0.55120116472
0.00000000000 0.44833648205 0.55166351795
1.00000000000 0.44904839993 0.55095160007
0.00000000000 0.44890508056 0.55109488964
0.00000000000 0.44907069206 0.55092930794
0.00000000000 0.44816645980 0.55183351040
0.00000000000 0.44885537028 0.55114465952
0.00000000000 0.44892010093 0.55107992887
0.00000000000 0.44898194075 0.55101811886
0.00000000000 0.44910445809 0.55089551210
0.00000000000 0.44855132699 0.55144870281
0.00000000000 0.44848039746 0.55151957273
1.00000000000 0.44866529107 0.55133467913
0.00000000000 0.44851833582 0.55148172379
1.00000000000 0.44903481007 0.55096518993
0.00000000000 0.44831308722 0.55168688297
0.00000000000 0.44897326827 0.55102670193
0.00000000000 0.44837570190 0.55162429810
0.00000000000 0.44886201620 0.55113798380
0.00000000000 0.44896042347 0.55103957653
1.00000000000 0.44890931249 0.55109065771
0.00000000000 0.44857373834 0.55142629147
0.00000000000 0.44855681062 0.55144321918
0.00000000000 0.44905707240 0.55094289780
0.00000000000 0.44897213578 0.55102789402
0.00000000000 0.44854545593 0.55145454407
0.00000000000 0.44917601347 0.55082398653
0.00000000000 0.44890788198 0.55109214783
0.00000000000 0.44852262735 0.55147737265
0.00000000000 0.44877207279 0.55122798681
0.00000000000 0.44796082377 0.55203914642
0.00000000000 0.44868645072 0.55131351948
0.00000000000 0.44887253642 0.55112743378
0.00000000000 0.44851043820 0.55148959160
0.00000000000 0.44891765714 0.55108231306
1.00000000000 0.44874030352 0.55125969648
0.00000000000 0.44855147600 0.55144846439
0.00000000000 0.44806227088 0.55193775892
0.00000000000 0.44855505228 0.55144494772
1.00000000000 0.44869193435 0.55130803585
0.00000000000 0.44828084111 0.55171912909
0.00000000000 0.44911149144 0.55088847876
0.00000000000 0.44878703356 0.55121296644
0.00000000000 0.44867357612 0.55132645369
0.00000000000 0.44832646847 0.55167353153
0.00000000000 0.44876325130 0.55123674870
0.00000000000 0.44908529520 0.55091464520
0.00000000000 0.44888752699 0.55111253262
1.00000000000 0.44831022620 0.55168980360
0.00000000000 0.44861620665 0.55138373375
0.00000000000 0.44855618477 0.55144387484
0.00000000000 0.44866183400 0.55133819580
0.00000000000 0.44857880473 0.55142122507
0.00000000000 0.44886094332 0.55113905668
0.00000000000 0.44892039895 0.55107963085
0.00000000000 0.44861990213 0.55138015747
0.00000000000 0.44842448831 0.55157548189
0.00000000000 0.44821810722 0.55178189278
0.00000000000 0.44811221957 0.55188775063
0.00000000000 0.44844532013 0.55155467987
0.00000000000 0.44886961579 0.55113041401
0.00000000000 0.44827198982 0.55172801018
0.00000000000 0.44842597842 0.55157405138
0.00000000000 0.44906499982 0.55093502998
0.00000000000 0.44855087996 0.55144906044
1.00000000000 0.44892734289 0.55107265711
0.00000000000 0.44877511263 0.55122482777
0.00000000000 0.44861835241 0.55138164759
0.00000000000 0.44797351956 0.55202645063
0.00000000000 0.44838416576 0.55161583424
0.00000000000 0.44846698642 0.55153304338
0.00000000000 0.44915771484 0.55084228516
0.00000000000 0.44898274541 0.55101722479
1.00000000000 0.44804915786 0.55195081234
0.00000000000 0.44872903824 0.55127096176
0.00000000000 0.44879063964 0.55120933056
0.00000000000 0.44849392772 0.55150604248
1.00000000000 0.44904345274 0.55095654726
0.00000000000 0.44841983914 0.55158019066
0.00000000000 0.44901540875 0.55098456144
0.00000000000 0.44861894846 0.55138105154
0.00000000000 0.44848847389 0.55151152611
0.00000000000 0.44823154807 0.55176842213
0.00000000000 0.44849517941 0.55150485039
0.00000000000 0.44924691319 0.55075305700
0.00000000000 0.44924509525 0.55075484514
0.00000000000 0.44901487231 0.55098509789
0.00000000000 0.44810709357 0.55189293623
0.00000000000 0.44860529900 0.55139470100
0.00000000000 0.44894409180 0.55105590820
0.00000000000 0.44884073734 0.55115920305
0.00000000000 0.44885089993 0.55114912987
0.00000000000 0.44823276997 0.55176723003
0.00000000000 0.44838988781 0.55161017179
0.00000000000 0.44888135791 0.55111867189
0.00000000000 0.44866323471 0.55133676529
0.00000000000 0.44854110479 0.55145895481
0.00000000000 0.44823583961 0.55176419020
0.00000000000 0.44844993949 0.55155003071
0.00000000000 0.44883197546 0.55116802454
0.00000000000 0.44886356592 0.55113649368
0.00000000000 0.44908288121 0.55091714859
0.00000000000 0.44819495082 0.55180507898
0.00000000000 0.44860380888 0.55139613152
1.00000000000 0.44894504547 0.55105495453
0.00000000000 0.44877305627 0.55122691393
0.00000000000 0.44816011190 0.55183982849
0.00000000000 0.44889092445 0.55110907555
0.00000000000 0.44901546836 0.55098456144
0.00000000000 0.44860678911 0.55139315128
0.00000000000 0.44876468182 0.55123531818
1.00000000000 0.44900509715 0.55099487305
0.00000000000 0.44905003905 0.55094999075
0.00000000000 0.44855213165 0.55144792795
0.00000000000 0.44869127870 0.55130869150
0.00000000000 0.44832998514 0.55167001486
0.00000000000 0.44913557172 0.55086445808
0.00000000000 0.44883003831 0.55116999149
0.00000000000 0.44858029485 0.55141973495
0.00000000000 0.44906833768 0.55093169212
0.00000000000 0.44870164990 0.55129837990
0.00000000000 0.44905874133 0.55094128847
0.00000000000 0.44825482368 0.55174517632
0.00000000000 0.44890859723 0.55109137297
1.00000000000 0.44833707809 0.55166286230
0.00000000000 0.44903007150 0.55096995831
0.00000000000 0.44889101386 0.55110901594
0.00000000000 0.44889086485 0.55110913515
1.00000000000 0.44897377491 0.55102622509
1.00000000000 0.44876778126 0.55123221874
1.00000000000 0.44847968221 0.55152028799
0.00000000000 0.44887650013 0.55112349987
0.00000000000 0.44887733459 0.55112266541
0.00000000000 0.44820001721 0.55180001259
0.00000000000 0.44893777370 0.55106216669
0.00000000000 0.44892263412 0.55107736588
0.00000000000 0.44805294275 0.55194705725
0.00000000000 0.44887185097 0.55112814903
0.00000000000 0.44806987047 0.55193012953
0.00000000000 0.44881242514 0.55118751526
0.00000000000 0.44835647941 0.55164349079
0.00000000000 0.44817703962 0.55182296038
0.00000000000 0.44848975539 0.55151027441
0.00000000000 0.44822779298 0.55177217722
0.00000000000 0.44863721728 0.55136275291
0.00000000000 0.44842287898 0.55157715082
0.00000000000 0.44840759039 0.55159235001
0.00000000000 0.44870403409 0.55129593611
0.00000000000 0.44892355800 0.55107647181
0.00000000000 0.44856640697 0.55143362284
1.00000000000 0.44851687551 0.55148309469
1.00000000000 0.44847068191 0.55152928829
1.00000000000 0.44864606857 0.55135399103
1.00000000000 0.44809406996 0.55190593004
1.00000000000 0.44814923406 0.55185073614
1.00000000000 0.44888570905 0.55111432076
0.00000000000 0.44857573509 0.55142426491
0.00000000000 0.44882708788 0.55117291212
0.00000000000 0.44881170988 0.55118834972
1.00000000000 0.44865766168 0.55134236813
0.00000000000 0.44793304801 0.55206692219
0.00000000000 0.44889953732 0.55110043287
0.00000000000 0.44910237193 0.55089759827
0.00000000000 0.44895055890 0.55104941130
0.00000000000 0.44880124927 0.55119878054
0.00000000000 0.44925478101 0.55074518919
0.00000000000 0.44879698753 0.55120295286
0.00000000000 0.44799578190 0.55200421810
0.00000000000 0.44911560416 0.55088436604
0.00000000000 0.44898706675 0.55101293325
0.00000000000 0.44875910878 0.55124092102
1.00000000000 0.44878634810 0.55121368170
0.00000000000 0.44893771410 0.55106228590
0.00000000000 0.44899258018 0.55100744963
0.00000000000 0.44878998399 0.55120998621
0.00000000000 0.44875475764 0.55124527216
0.00000000000 0.44864520431 0.55135482550
0.00000000000 0.44883704185 0.55116295815
0.00000000000 0.44867420197 0.55132579803
0.00000000000 0.44854798913 0.55145204067
0.00000000000 0.44814324379 0.55185675621
0.00000000000 0.44817477465 0.55182522535
0.00000000000 0.44898974895 0.55101025105
0.00000000000 0.44886797667 0.55113196373
1.00000000000 0.44909024239 0.55090975761
0.00000000000 0.44876402617 0.55123591423
0.00000000000 0.44861757755 0.55138242245
0.00000000000 0.44871357083 0.55128639936
0.00000000000 0.44863700867 0.55136305094
0.00000000000 0.44928038120 0.55071961880
0.00000000000 0.44870546460 0.55129456520
0.00000000000 0.44828602672 0.55171400309
0.00000000000 0.44872406125 0.55127590895
0.00000000000 0.44889914989 0.55110085011
0.00000000000 0.44851493835 0.55148506165
0.00000000000 0.44885385036 0.55114620924
0.00000000000 0.44878202677 0.55121797323
0.00000000000 0.44871428609 0.55128568411
1.00000000000 0.44904491305 0.55095505714
0.00000000000 0.44892838597 0.55107158422
1.00000000000 0.44878414273 0.55121588707
0.00000000000 0.44862684608 0.55137318373
0.00000000000 0.44859358668 0.55140638351
0.00000000000 0.44823074341 0.55176925659
0.00000000000 0.44892880321 0.55107122660
1.00000000000 0.44862186909 0.55137813091
0.00000000000 0.44869962335 0.55130040646
1.00000000000 0.44899103045 0.55100899935
0.00000000000 0.44881150126 0.55118846893
0.00000000000 0.44824954867 0.55175042152
0.00000000000 0.44850391150 0.55149614811
0.00000000000 0.44844254851 0.55155742168
0.00000000000 0.44857937098 0.55142062902
0.00000000000 0.44820103049 0.55179899931
1.00000000000 0.44867789745 0.55132210255
0.00000000000 0.44923591614 0.55076408386
0.00000000000 0.44861161709 0.55138838291
0.00000000000 0.44868570566 0.55131423473
0.00000000000 0.44882926345 0.55117070675
0.00000000000 0.44855651259 0.55144351721
0.00000000000 0.44866296649 0.55133700371
0.00000000000 0.44861081243 0.55138921738
0.00000000000 0.44919821620 0.55080175400
1.00000000000 0.44861471653 0.55138528347
1.00000000000 0.44845646620 0.55154347420
0.00000000000 0.44838285446 0.55161708593
0.00000000000 0.44902011752 0.55097985268
1.00000000000 0.44839116931 0.55160886049
0.00000000000 0.44913086295 0.55086910725
0.00000000000 0.44891121984 0.55108875036
0.00000000000 0.44856807590 0.55143189430
0.00000000000 0.44893789291 0.55106210709
0.00000000000 0.44837173820 0.55162829161
0.00000000000 0.44875356555 0.55124640465
0.00000000000 0.44862556458 0.55137443542
0.00000000000 0.44830459356 0.55169540644
0.00000000000 0.44795876741 0.55204123259
1.00000000000 0.44937229156 0.55062770844
1.00000000000 0.44889268279 0.55110734701
0.00000000000 0.44837218523 0.55162775517
0.00000000000 0.44886389375 0.55113613605
1.00000000000 0.44859185815 0.55140817165
1.00000000000 0.44815510511 0.55184489489
0.00000000000 0.44836848974 0.55163145065
0.00000000000 0.44866818190 0.55133181810
0.00000000000 0.44852405787 0.55147588253
0.00000000000 0.44854685664 0.55145311356
0.00000000000 0.44904088974 0.55095911026
0.00000000000 0.44882422686 0.55117571354
0.00000000000 0.44851636887 0.55148363113
0.00000000000 0.44876006246 0.55123996735
0.00000000000 0.44825473428 0.55174523592
0.00000000000 0.44910520315 0.55089485645
0.00000000000 0.44822806120 0.55177187920
0.00000000000 0.44857585430 0.55142414570
0.00000000000 0.44882154465 0.55117839575
0.00000000000 0.44860416651 0.55139583349
0.00000000000 0.44834157825 0.55165839195
0.00000000000 0.44831159711 0.55168837309
0.00000000000 0.44912800193 0.55087196827
1.00000000000 0.44894367456 0.55105632544
0.00000000000 0.44824373722 0.55175620317
1.00000000000 0.44884017110 0.55115985870
0.00000000000 0.44899934530 0.55100065470
0.00000000000 0.44896993041 0.55103009939
0.00000000000 0.44885912538 0.55114090443
0.00000000000 0.44875636697 0.55124360323
1.00000000000 0.44912987947 0.55087012053
1.00000000000 0.44878479838 0.55121523142
0.00000000000 0.44846376777 0.55153626204
0.00000000000 0.44907993078 0.55092006922
0.00000000000 0.44831088185 0.55168914795
0.00000000000 0.44894319773 0.55105680227
0.00000000000 0.44882044196 0.55117958784
0.00000000000 0.44883438945 0.55116558075
0.00000000000 0.44929116964 0.55070883036
0.00000000000 0.44859522581 0.55140477419
0.00000000000 0.44874358177 0.55125641823
0.00000000000 0.44852989912 0.55147010088
0.00000000000 0.44905635715 0.55094367266
0.00000000000 0.44847968221 0.55152028799
0.00000000000 0.44864156842 0.55135846138
0.00000000000 0.44873428345 0.55126571655
0.00000000000 0.44849598408 0.55150401592
0.00000000000 0.44918411970 0.55081588030
1.00000000000 0.44903361797 0.55096632242
0.00000000000 0.44868534803 0.55131459236
0.00000000000 0.44764748216 0.55235248804
0.00000000000 0.44806236029 0.55193763971
0.00000000000 0.44864317775 0.55135685205
0.00000000000 0.44869318604 0.55130678415
0.00000000000 0.44824180007 0.55175822973
0.00000000000 0.44872578979 0.55127424002
0.00000000000 0.44908681512 0.55091321468
0.00000000000 0.44861081243 0.55138921738
0.00000000000 0.44896870852 0.55103129148
0.00000000000 0.44903254509 0.55096745491
1.00000000000 0.44859561324 0.55140441656
0.00000000000 0.44855561852 0.55144435167
0.00000000000 0.44800001383 0.55199998617
0.00000000000 0.44895985723 0.55104011297
0.00000000000 0.44871100783 0.55128902197
0.00000000000 0.44850456715 0.55149543285
0.00000000000 0.44900989532 0.55099010468
0.00000000000 0.44843015075 0.55156987906
0.00000000000 0.44868484139 0.55131518841
0.00000000000 0.44828939438 0.55171054602
0.00000000000 0.44877409935 0.55122590065
0.00000000000 0.44891750813 0.55108249187
0.00000000000 0.44876837730 0.55123162270
0.00000000000 0.44907048345 0.55092948675
0.00000000000 0.44900944829 0.55099058151
0.00000000000 0.44857513905 0.55142486095
0.00000000000 0.44878092408 0.55121904612
0.00000000000 0.44816008210 0.55183994770
0.00000000000 0.44845747948 0.55154252052
0.00000000000 0.44878262281 0.55121737719
0.00000000000 0.44893097878 0.55106896162
0.00000000000 0.44875752926 0.55124247074
1.00000000000 0.44843083620 0.55156916380
0.00000000000 0.44802856445 0.55197143555
0.00000000000 0.44904476404 0.55095523596
0.00000000000 0.44894039631 0.55105960369
0.00000000000 0.44789713621 0.55210286379
0.00000000000 0.44865229726 0.55134773254
0.00000000000 0.44862395525 0.55137604475
0.00000000000 0.44901156425 0.55098843575
0.00000000000 0.44831654429 0.55168348551
0.00000000000 0.44886633754 0.55113363266
1.00000000000 0.44821992517 0.55178010464
0.00000000000 0.44845423102 0.55154579878
0.00000000000 0.44922554493 0.55077445507
0.00000000000 0.44901835918 0.55098170042
0.00000000000 0.44819220901 0.55180782080
0.00000000000 0.44823837280 0.55176162720
0.00000000000 0.44855296612 0.55144703388
0.00000000000 0.44829341769 0.55170655251
0.00000000000 0.44834315777 0.55165678263
0.00000000000 0.44879186153 0.55120807886
0.00000000000 0.44849446416 0.55150556564
0.00000000000 0.44910976291 0.55089026690
0.00000000000 0.44882726669 0.55117273331
0.00000000000 0.44881570339 0.55118429661
0.00000000000 0.44890704751 0.55109298229
0.00000000000 0.44857016206 0.55142986774
0.00000000000 0.44898244739 0.55101752281
0.00000000000 0.44860574603 0.55139428377
0.00000000000 0.44859799743 0.55140203238
0.00000000000 0.44915089011 0.55084913969
0.00000000000 0.44857329130 0.55142670870
0.00000000000 0.44894549251 0.55105453730
0.00000000000 0.44856846333 0.55143153667
1.00000000000 0.44918563962 0.55081433058
0.00000000000 0.44895482063 0.55104517937
0.00000000000 0.44857424498 0.55142575502
0.00000000000 0.44830682874 0.55169314146
0.00000000000 0.44919243455 0.55080753565
0.00000000000 0.44907620549 0.55092376471
0.00000000000 0.44808077812 0.55191922188
0.00000000000 0.44861048460 0.55138945580
0.00000000000 0.44892853498 0.55107146502
0.00000000000 0.44894048572 0.55105948448
0.00000000000 0.44875013828 0.55124992132
0.00000000000 0.44824802876 0.55175203085
0.00000000000 0.44871196151 0.55128800869
0.00000000000 0.44844466448 0.55155539513
0.00000000000 0.44864904881 0.55135101080
0.00000000000 0.44840934873 0.55159062147
0.00000000000 0.44883835316 0.55116158724
0.00000000000 0.44898706675 0.55101293325
0.00000000000 0.44867724180 0.55132275820
1.00000000000 0.44857916236 0.55142086744
0.00000000000 0.44861969352 0.55138033628
1.00000000000 0.44810029864 0.55189973116
0.00000000000 0.44897216558 0.55102777481
1.00000000000 0.44874542952 0.55125463009
1.00000000000 0.44895592332 0.55104410648
0.00000000000 0.44847962260 0.55152034760
0.00000000000 0.44890779257 0.55109220743
0.00000000000 0.44871926308 0.55128073692
0.00000000000 0.44850710034 0.55149292946
1.00000000000 0.44877621531 0.55122381449
0.00000000000 0.44900032878 0.55099970102
0.00000000000 0.44887760282 0.55112236738
1.00000000000 0.44838583469 0.55161416531
0.00000000000 0.44870129228 0.55129873753
0.00000000000 0.44887435436 0.55112558603
0.00000000000 0.44895666838 0.55104333162
0.00000000000 0.44864505529 0.55135500431
1.00000000000 0.44836565852 0.55163431168
0.00000000000 0.44836586714 0.55163413286
0.00000000000 0.44868570566 0.55131429434
0.00000000000 0.44853514433 0.55146485567
1.00000000000 0.44840803742 0.55159193277
1.00000000000 0.44887909293 0.55112087727
0.00000000000 0.44894713163 0.55105286837
0.00000000000 0.44850131869 0.55149865150
0.00000000000 0.44877505302 0.55122488737
0.00000000000 0.44826450944 0.55173552036
0.00000000000 0.44860172272 0.55139827728
0.00000000000 0.44883880019 0.55116122961
0.00000000000 0.44824916124 0.55175083876
0.00000000000 0.44891563058 0.55108439922
0.00000000000 0.44911271334 0.55088728666
0.00000000000 0.44868767262 0.55131238699
0.00000000000 0.44879633188 0.55120366812
0.00000000000 0.44908902049 0.55091100931
0.00000000000 0.44863796234 0.55136203766
0.00000000000 0.44863715768 0.55136281252
0.00000000000 0.44910648465 0.55089348555
0.00000000000 0.44883495569 0.55116498470
0.00000000000 0.44879427552 0.55120569468
0.00000000000 0.44827932119 0.55172067881
0.00000000000 0.44885370135 0.55114626884
0.00000000000 0.44833031297 0.55166965723
0.00000000000 0.44840034842 0.55159968138
0.00000000000 0.44830781221 0.55169218779
0.00000000000 0.44902110100 0.55097895861
0.00000000000 0.44924777746 0.55075222254
0.00000000000 0.44846358895 0.55153638124
0.00000000000 0.44906297326 0.55093705654
0.00000000000 0.44875308871 0.55124688148
0.00000000000 0.44866955280 0.55133038759
0.00000000000 0.44849193096 0.55150800943
0.00000000000 0.44889318943 0.55110681057
0.00000000000 0.44801291823 0.55198711157
0.00000000000 0.44873905182 0.55126094818
0.00000000000 0.44835585356 0.55164408684
1.00000000000 0.44796088338 0.55203908682
0.00000000000 0.44836100936 0.55163902044
0.00000000000 0.44899275899 0.55100721121
0.00000000000 0.44859033823 0.55140966177
0.00000000000 0.44823437929 0.55176562071
1.00000000000 0.44827094674 0.55172908306
0.00000000000 0.44829007983 0.55170989037
0.00000000000 0.44890788198 0.55109214783
0.00000000000 0.44883492589 0.55116510391
0.00000000000 0.44879445434 0.55120551586
0.00000000000 0.44871807098 0.55128192902
0.00000000000 0.44891735911 0.55108261108
0.00000000000 0.44852644205 0.55147355795
0.00000000000 0.44889697433 0.55110299587
0.00000000000 0.44917616248 0.55082386732
0.00000000000 0.44874832034 0.55125164986
0.00000000000 0.44898325205 0.55101674795
0.00000000000 0.44842311740 0.55157691240
0.00000000000 0.44849956036 0.55150049925
0.00000000000 0.44863685966 0.55136311054
0.00000000000 0.44859981537 0.55140012503
0.00000000000 0.44872093201 0.55127906799
0.00000000000 0.44862046838 0.55137956142
1.00000000000 0.44878664613 0.55121332407
0.00000000000 0.44877338409 0.55122661591
0.00000000000 0.44809681177 0.55190318823
0.00000000000 0.44831347466 0.55168652534
0.00000000000 0.44925138354 0.55074858665
0.00000000000 0.44857379794 0.55142617226
0.00000000000 0.44900459051 0.55099534988
0.00000000000 0.44853246212 0.55146753788
0.00000000000 0.44908541441 0.55091458559
0.00000000000 0.44848883152 0.55151122808
0.00000000000 0.44920846820 0.55079156160
0.00000000000 0.44829156995 0.55170840025
1.00000000000 0.44838088751 0.55161917210
0.00000000000 0.44909459352 0.55090540648
0.00000000000 0.44864895940 0.55135101080
0.00000000000 0.44855690002 0.55144309998
0.00000000000 0.44890028238 0.55109971762
1.00000000000 0.44862347841 0.55137652159
0.00000000000 0.44884172082 0.55115824938
0.00000000000 0.44874107838 0.55125898123
0.00000000000 0.44850972295 0.55149024725
0.00000000000 0.44874861836 0.55125141144
0.00000000000 0.44892159104 0.55107837915
0.00000000000 0.44874358177 0.55125641823
0.00000000000 0.44830542803 0.55169457197
0.00000000000 0.44834697247 0.55165302753
0.00000000000 0.44817411900 0.55182588100
0.00000000000 0.44881710410 0.55118292570
0.00000000000 0.44860163331 0.55139833689
0.00000000000 0.44881823659 0.55118173361
0.00000000000 0.44863671064 0.55136322975
1.00000000000 0.44902834296 0.55097168684
0.00000000000 0.44854542613 0.55145460367
0.00000000000 0.44842877984 0.55157124996
1.00000000000 0.44855064154 0.55144935846
0.00000000000 0.44903901219 0.55096095800
0.00000000000 0.44828757644 0.55171239376
0.00000000000 0.44900152087 0.55099844933
0.00000000000 0.44895616174 0.55104386806
0.00000000000 0.44846415520 0.55153578520
0.00000000000 0.44871896505 0.55128103495
0.00000000000 0.44883379340 0.55116617680
0.00000000000 0.44880497456 0.55119502544
0.00000000000 0.44889700413 0.55110299587
0.00000000000 0.44856208563 0.55143791437
0.00000000000 0.44786989689 0.55213010311
0.00000000000 0.44836634398 0.55163365602
0.00000000000 0.44839084148 0.55160915852
0.00000000000 0.44923287630 0.55076706409
0.00000000000 0.44819360971 0.55180639029
0.00000000000 0.44823884964 0.55176115036
0.00000000000 0.44879403710 0.55120593309
0.00000000000 0.44853335619 0.55146664381
0.00000000000 0.44831973314 0.55168026686
0.00000000000 0.44812852144 0.55187147856
0.00000000000 0.44844973087 0.55155020952
0.00000000000 0.44883370399 0.55116629601
1.00000000000 0.44845125079 0.55154877901
0.00000000000 0.44772475958 0.55227524042
1.00000000000 0.44888660312 0.55111342669
0.00000000000 0.44875159860 0.55124837160
0.00000000000 0.44879105687 0.55120891333
0.00000000000 0.44848093390 0.55151903629
1.00000000000 0.44847083092 0.55152922869
0.00000000000 0.44861033559 0.55138963461
0.00000000000 0.44841310382 0.55158686638
0.00000000000 0.44841274619 0.55158722401
1.00000000000 0.44853559136 0.55146437883
0.00000000000 0.44870918989 0.55129075050
0.00000000000 0.44884666800 0.55115336180
0.00000000000 0.44887769222 0.55112230778
0.00000000000 0.44912302494 0.55087697506
0.00000000000 0.44884836674 0.55115163326
0.00000000000 0.44864454865 0.55135542154
0.00000000000 0.44884067774 0.55115938187
0.00000000000 0.44915938377 0.55084055662
0.00000000000 0.44895830750 0.55104172230
0.00000000000 0.44913870096 0.55086135864
0.00000000000 0.44877743721 0.55122250319
0.00000000000 0.44827488065 0.55172508955
0.00000000000 0.44875520468 0.55124473572
1.00000000000 0.44909512997 0.55090492964
0.00000000000 0.44847670197 0.55152326822
0.00000000000 0.44935107231 0.55064892769
0.00000000000 0.44850009680 0.55149990320
0.00000000000 0.44889622927 0.55110383034
0.00000000000 0.44871810079 0.55128186941
0.00000000000 0.44857612252 0.55142384768
0.00000000000 0.44880318642 0.55119681358
0.00000000000 0.44846224785 0.55153775215
0.00000000000 0.44838944077 0.55161052942
0.00000000000 0.44875910878 0.55124092102
0.00000000000 0.44880715013 0.55119287968
0.00000000000 0.44875502586 0.55124497414
0.00000000000 0.44912910461 0.55087089539
0.00000000000 0.44885927439 0.55114072561
1.00000000000 0.44838538766 0.55161458254
0.00000000000 0.44841125607 0.55158877373
0.00000000000 0.44887775183 0.55112218857
0.00000000000 0.44907054305 0.55092942715
0.00000000000 0.44901660085 0.55098342896
0.00000000000 0.44884371758 0.55115634203
0.00000000000 0.44829368591 0.55170631409
0.00000000000 0.44902232289 0.55097770691
0.00000000000 0.44872149825 0.55127853155
0.00000000000 0.44857150316 0.55142849684
