0.00000000000 0.03822801635 0.96177196503
0.00000000000 0.95931124687 0.04068871960
0.00000000000 0.98628795147 0.01371201035
1.00000000000 0.26811420918 0.73188573122
1.00000000000 0.14751952887 0.85248047113
0.00000000000 0.97921204567 0.02078790218
0.00000000000 0.98281246424 0.01718753949
1.00000000000 0.14935788512 0.85064208508
0.00000000000 0.98096793890 0.01903212070
0.00000000000 0.98862725496 0.01137277484
0.00000000000 0.90078759193 0.09921234846
0.00000000000 0.98356401920 0.01643597707
1.00000000000 0.98782992363 0.01217007358
0.00000000000 0.96911048889 0.03088952787
0.00000000000 0.98804348707 0.01195643283
0.00000000000 0.18383482099 0.81616520882
0.00000000000 0.93378937244 0.06621062011
0.00000000000 0.98330265284 0.01669735834
0.00000000000 0.98764753342 0.01235249452
1.00000000000 0.04190447927 0.95809549093
0.00000000000 0.10966507345 0.89033490419
0.00000000000 0.98328536749 0.01671467163
0.00000000000 0.02309154905 0.97690838575
0.00000000000 0.98790317774 0.01209682878
0.00000000000 0.86028403044 0.13971598446
0.00000000000 0.92742168903 0.07257830352
0.00000000000 0.06986929476 0.93013072014
0.00000000000 0.98784375191 0.01215625368
0.00000000000 0.98614996672 0.01384997740
0.00000000000 0.94051009417 0.05948993191
0.00000000000 0.98254215717 0.01745788008
0.00000000000 0.98465919495 0.01534084696
0.00000000000 0.97295594215 0.02704405785
0.00000000000 0.98178321123 0.01821684837
0.00000000000 0.96227174997 0.03772827610
0.00000000000 0.03967300802 0.96032696962
0.00000000000 0.90509659052 0.09490343183
0.00000000000 0.98469072580 0.01530921459
0.00000000000 0.96502530575 0.03497465700
1.00000000000 0.25388705730 0.74611300230
0.00000000000 0.98413383961 0.01586622559
0.00000000000 0.98744106293 0.01255898736
0.00000000000 0.98686814308 0.01313191466
0.00000000000 0.98539900780 0.01460098755
0.00000000000 0.89270251989 0.10729745030
0.00000000000 0.73194652796 0.26805347204
0.00000000000 0.50199514627 0.49800488353
1.00000000000 0.75938206911 0.24061793089
0.00000000000 0.98568755388 0.01431250945
1.00000000000 0.04771731421 0.95228272676
0.00000000000 0.98744893074 0.01255109534
0.00000000000 0.97482520342 0.02517480403
0.00000000000 0.98174494505 0.01825506054
0.00000000000 0.96089768410 0.03910230100
0.00000000000 0.31898471713 0.68101525307
0.00000000000 0.50132757425 0.49867239594
0.00000000000 0.93768084049 0.06231914088
0.00000000000 0.98529618979 0.01470382139
0.00000000000 0.95273298025 0.04726704210
1.00000000000 0.19905890524 0.80094105005
0.00000000000 0.42397102714 0.57602900267
1.00000000000 0.12207192928 0.87792807817
0.00000000000 0.95280545950 0.04719451070
0.00000000000 0.98724395037 0.01275602262
0.00000000000 0.58445060253 0.41554933786
0.00000000000 0.98749965429 0.01250040252
0.00000000000 0.97538083792 0.02461917512
0.00000000000 0.98530268669 0.01469730027
0.00000000000 0.97742336988 0.02257664502
1.00000000000 0.03124073893 0.96875917912
1.00000000000 0.98331671953 0.01668324135
0.00000000000 0.98735564947 0.01264432911
0.00000000000 0.98514056206 0.01485937554
1.00000000000 0.02096313797 0.97903686762
0.00000000000 0.04008239135 0.95991766453
0.00000000000 0.98426878452 0.01573123969
0.00000000000 0.12601135671 0.87398868799
0.00000000000 0.14665572345 0.85334426165
0.00000000000 0.98719096184 0.01280901581
0.00000000000 0.98178046942 0.01821959578
0.00000000000 0.94433945417 0.05566051602
0.00000000000 0.98178815842 0.01821183786
0.00000000000 0.21255399287 0.78744602203
0.00000000000 0.97913420200 0.02086577192
1.00000000000 0.21840196848 0.78159803152
0.00000000000 0.95838040113 0.04161958396
0.00000000000 0.98724871874 0.01275129151
1.00000000000 0.08317920566 0.91682082415
0.00000000000 0.98693293333 0.01306708250
0.00000000000 0.98487156630 0.01512841787
1.00000000000 0.03301614523 0.96698385477
0.00000000000 0.98265463114 0.01734538004
1.00000000000 0.12129046023 0.87870955467
0.00000000000 0.98708808422 0.01291189436
0.00000000000 0.98742282391 0.01257716492
0.00000000000 0.98601460457 0.01398538053
0.00000000000 0.98401433229 0.01598565280
0.00000000000 0.95095270872 0.04904727265
0.00000000000 0.97608715296 0.02391292527
0.00000000000 0.98763066530 0.01236938871
0.00000000000 0.97459942102 0.02540063486
0.00000000000 0.97989696264 0.02010304853
0.00000000000 0.74599772692 0.25400224328
0.00000000000 0.53893011808 0.46106991172
0.00000000000 0.02983200923 0.97016799450
1.00000000000 0.16909094155 0.83090907335
0.00000000000 0.98592191935 0.01407808717
0.00000000000 0.10287347436 0.89712655544
0.00000000000 0.97837114334 0.02162884548
0.00000000000 0.14805461466 0.85194540024
0.00000000000 0.98662799597 0.01337200962
0.00000000000 0.03461217135 0.96538782120
0.00000000000 0.04350392148 0.95649605989
0.00000000000 0.98557323217 0.01442672312
0.00000000000 0.98791468143 0.01208534651
0.00000000000 0.67345565557 0.32654434443
0.00000000000 0.98249357939 0.01750645041
0.00000000000 0.04599903896 0.95400100946
0.00000000000 0.97468888760 0.02531117573
0.00000000000 0.33787363768 0.66212642193
0.00000000000 0.97539865971 0.02460128628
0.00000000000 0.98502510786 0.01497492101
0.00000000000 0.97968947887 0.02031051740
0.00000000000 0.86106210947 0.13893789053
0.00000000000 0.05688052252 0.94311946630
0.00000000000 0.03158750013 0.96841251850
0.00000000000 0.14340355992 0.85659646988
0.00000000000 0.94809973240 0.05190028623
0.00000000000 0.98823136091 0.01176865585
0.00000000000 0.98698562384 0.01301439386
0.00000000000 0.04891380295 0.95108622313
0.00000000000 0.50639462471 0.49360534549
0.00000000000 0.96648752689 0.03351250663
0.00000000000 0.98441135883 0.01558867469
0.00000000000 0.96196323633 0.03803681582
0.00000000000 0.98304086924 0.01695916615
0.00000000000 0.97688341141 0.02311665937
0.00000000000 0.38641035557 0.61358964443
0.00000000000 0.98411738873 0.01588254422
1.00000000000 0.58558309078 0.41441693902
0.00000000000 0.87441176176 0.12558826804
0.00000000000 0.98631358147 0.01368638780
1.00000000000 0.04073934257 0.95926070213
1.00000000000 0.76588076353 0.23411919177
0.00000000000 0.98035103083 0.01964896917
0.00000000000 0.98806899786 0.01193096954
0.00000000000 0.92245405912 0.07754596323
0.00000000000 0.97628909349 0.02371094376
0.00000000000 0.98841863871 0.01158133522
1.00000000000 0.02449236624 0.97550767660
0.00000000000 0.29894623160 0.70105373859
0.00000000000 0.47867161036 0.52132838964
0.00000000000 0.98335915804 0.01664092764
0.00000000000 0.01794438064 0.98205560446
0.00000000000 0.96623349190 0.03376655653
1.00000000000 0.90291911364 0.09708090872
0.00000000000 0.13258345425 0.86741656065
0.00000000000 0.06507752836 0.93492251635
0.00000000000 0.16968442500 0.83031558990
0.00000000000 0.89218479395 0.10781516135
0.00000000000 0.95174843073 0.04825159535
0.00000000000 0.96409952641 0.03590046987
0.00000000000 0.98232609034 0.01767389476
0.00000000000 0.97302633524 0.02697363310
0.00000000000 0.10281120241 0.89718884230
0.00000000000 0.86284869909 0.13715131581
0.00000000000 0.20843195915 0.79156810045
0.00000000000 0.98781150579 0.01218848862
0.00000000000 0.98030281067 0.01969716512
1.00000000000 0.19954799116 0.80045199394
0.00000000000 0.86124968529 0.13875034451
0.00000000000 0.98805749416 0.01194248721
0.00000000000 0.90039068460 0.09960928559
1.00000000000 0.03633024171 0.96366971731
0.00000000000 0.43105596304 0.56894403696
0.00000000000 0.98260223866 0.01739777438
0.00000000000 0.98748731613 0.01251263916
0.00000000000 0.15202178061 0.84797817469
0.00000000000 0.98547804356 0.01452200115
0.00000000000 0.98737645149 0.01262360532
0.00000000000 0.08780430257 0.91219568253
1.00000000000 0.03296266124 0.96703732014
0.00000000000 0.98440957069 0.01559039950
0.00000000000 0.98465442657 0.01534557343
1.00000000000 0.02661145665 0.97338855267
0.00000000000 0.98184305429 0.01815691963
1.00000000000 0.35938510299 0.64061486721
0.00000000000 0.98631525040 0.01368478499
0.00000000000 0.21797046065 0.78202956915
0.00000000000 0.80567371845 0.19432628155
0.00000000000 0.60374873877 0.39625132084
0.00000000000 0.98403084278 0.01596912928
0.00000000000 0.98633331060 0.01366663910
0.00000000000 0.97826308012 0.02173693851
0.00000000000 0.98789304495 0.01210697740
0.00000000000 0.95152962208 0.04847036302
1.00000000000 0.05082142353 0.94917863607
0.00000000000 0.82321459055 0.17678542435
0.00000000000 0.96831125021 0.03168882057
0.00000000000 0.52385163307 0.47614833713
0.00000000000 0.29450869560 0.70549130440
0.00000000000 0.84452801943 0.15547195077
0.00000000000 0.97687578201 0.02312426828
0.00000000000 0.17180444300 0.82819557190
0.00000000000 0.71423774958 0.28576222062
0.00000000000 0.09201650321 0.90798348188
0.00000000000 0.09652648121 0.90347349644
1.00000000000 0.03919065744 0.96080929041
0.00000000000 0.98429179192 0.01570822857
0.00000000000 0.97708898783 0.02291099727
0.00000000000 0.93361371756 0.06638628244
0.00000000000 0.37858083844 0.62141913176
0.00000000000 0.98730206490 0.01269794721
0.00000000000 0.09976905584 0.90023100376
0.00000000000 0.96871185303 0.03128809109
0.00000000000 0.98360908031 0.01639086567
0.00000000000 0.04165594652 0.95834410191
0.00000000000 0.97850513458 0.02149492875
0.00000000000 0.97457808256 0.02542183548
0.00000000000 0.98672813177 0.01327187568
0.00000000000 0.05691619962 0.94308382273
0.00000000000 0.80652773380 0.19347222149
0.00000000000 0.98604714870 0.01395280287
1.00000000000 0.98169988394 0.01830008067
0.00000000000 0.02567006461 0.97433000803
0.00000000000 0.06038944423 0.93961054087
0.00000000000 0.98781323433 0.01218670886
0.00000000000 0.50159925222 0.49840080738
0.00000000000 0.98243308067 0.01756687090
0.00000000000 0.82366776466 0.17633225024
0.00000000000 0.19945585728 0.80054414272
0.00000000000 0.97723877430 0.02276116982
0.00000000000 0.98225778341 0.01774223149
0.00000000000 0.87830460072 0.12169542164
0.00000000000 0.81901484728 0.18098515272
0.00000000000 0.02840350568 0.97159653902
0.00000000000 0.28060764074 0.71939229965
0.00000000000 0.93759113550 0.06240892038
0.00000000000 0.96052777767 0.03947221115
0.00000000000 0.18291081488 0.81708914042
0.00000000000 0.98256313801 0.01743685454
0.00000000000 0.98646646738 0.01353358105
0.00000000000 0.98143690825 0.01856313273
0.00000000000 0.25131568313 0.74868434668
0.00000000000 0.98590523005 0.01409474853
0.00000000000 0.73949950933 0.26050049067
0.00000000000 0.97502362728 0.02497631684
0.00000000000 0.98360300064 0.01639704965
0.00000000000 0.98818844557 0.01181156188
0.00000000000 0.97144281864 0.02855718695
0.00000000000 0.97422677279 0.02577325888
0.00000000000 0.60723817348 0.39276179671
0.00000000000 0.95483106375 0.04516899586
0.00000000000 0.04311366007 0.95688629150
0.00000000000 0.97695189714 0.02304808982
0.00000000000 0.29594054818 0.70405948162
0.00000000000 0.93387448788 0.06612552702
0.00000000000 0.98484158516 0.01515835803
0.00000000000 0.97688645124 0.02311355062
0.00000000000 0.79471945763 0.20528057218
1.00000000000 0.93782955408 0.06217039749
0.00000000000 0.98846101761 0.01153898984
0.00000000000 0.71942532063 0.28057467937
0.00000000000 0.98684257269 0.01315736677
0.00000000000 0.98580235243 0.01419771835
0.00000000000 0.84296852350 0.15703150630
0.00000000000 0.96713769436 0.03286230937
0.00000000000 0.70823931694 0.29176071286
0.00000000000 0.98685836792 0.01314166188
0.00000000000 0.97901147604 0.02098854072
0.00000000000 0.97449243069 0.02550754510
0.00000000000 0.98664563894 0.01335444581
0.00000000000 0.98297977448 0.01702022552
0.00000000000 0.82715147734 0.17284847796
0.00000000000 0.34936508536 0.65063494444
1.00000000000 0.79539906979 0.20460087061
1.00000000000 0.88747847080 0.11252149194
0.00000000000 0.93953907490 0.06046090275
0.00000000000 0.98651069403 0.01348933950
0.00000000000 0.93626254797 0.06373743713
1.00000000000 0.59290128946 0.40709868073
1.00000000000 0.09708043933 0.90291953087
0.00000000000 0.93992900848 0.06007097661
0.00000000000 0.03768900409 0.96231096983
0.00000000000 0.98603278399 0.01396723092
0.00000000000 0.98570638895 0.01429361943
0.00000000000 0.98405712843 0.01594281197
0.00000000000 0.97593462467 0.02406536229
0.00000000000 0.94149917364 0.05850078166
0.00000000000 0.98529064655 0.01470929198
0.00000000000 0.98682665825 0.01317328867
0.00000000000 0.98580473661 0.01419518795
0.00000000000 0.98477429152 0.01522571221
0.00000000000 0.98157995939 0.01842000149
0.00000000000 0.94148755074 0.05851244554
1.00000000000 0.91282737255 0.08717256784
0.00000000000 0.84191465378 0.15808536112
0.00000000000 0.98259913921 0.01740082912
0.00000000000 0.98343497515 0.01656506583
0.00000000000 0.98674625158 0.01325374749
0.00000000000 0.96663415432 0.03336579353
1.00000000000 0.02268543281 0.97731459141
0.00000000000 0.79122757912 0.20877242088
0.00000000000 0.98518931866 0.01481070556
0.00000000000 0.97108286619 0.02891708352
0.00000000000 0.98011803627 0.01988191530
1.00000000000 0.05890683085 0.94109314680
1.00000000000 0.96519672871 0.03480328619
0.00000000000 0.96194130182 0.03805871308
1.00000000000 0.04977162927 0.95022833347
0.00000000000 0.98591226339 0.01408774685
0.00000000000 0.91698896885 0.08301098645
0.00000000000 0.31927028298 0.68072974682
0.00000000000 0.97702091932 0.02297908254
0.00000000000 0.04115153477 0.95884853601
0.00000000000 0.56378811598 0.43621191382
0.00000000000 0.88113796711 0.11886199564
0.00000000000 0.96808183193 0.03191817924
0.00000000000 0.97319376469 0.02680628188
1.00000000000 0.04811625928 0.95188379288
0.00000000000 0.66618871689 0.33381131291
0.00000000000 0.04835192859 0.95164805651
0.00000000000 0.03920147941 0.96079850197
0.00000000000 0.98173207045 0.01826794632
0.00000000000 0.06997599453 0.93002396822
0.00000000000 0.68009072542 0.31990930438
0.00000000000 0.14965172112 0.85034823418
1.00000000000 0.11072470993 0.88927525282
0.00000000000 0.96800196171 0.03199808300
0.00000000000 0.34008201957 0.65991795063
0.00000000000 0.98637068272 0.01362932660
0.00000000000 0.97806769609 0.02193223499
1.00000000000 0.06737750024 0.93262249231
0.00000000000 0.49648785591 0.50351214409
0.00000000000 0.97989195585 0.02010810748
0.00000000000 0.98730611801 0.01269382797
0.00000000000 0.97712242603 0.02287754789
0.00000000000 0.02977513149 0.97022485733
0.00000000000 0.05982260779 0.94017744064
0.00000000000 0.32373699546 0.67626303434
1.00000000000 0.11978299916 0.88021701574
0.00000000000 0.98747444153 0.01252563857
0.00000000000 0.94251525402 0.05748473480
0.00000000000 0.97345793247 0.02654212900
0.00000000000 0.07210075855 0.92789924145
0.00000000000 0.97994059324 0.02005944960
0.00000000000 0.98311954737 0.01688041352
1.00000000000 0.16585405171 0.83414596319
0.00000000000 0.84558206797 0.15441793203
0.00000000000 0.98782032728 0.01217968483
0.00000000000 0.97498691082 0.02501311712
0.00000000000 0.35486632586 0.64513367414
0.00000000000 0.95929127932 0.04070872068
0.00000000000 0.96810865402 0.03189136088
0.00000000000 0.98773437738 0.01226560678
0.00000000000 0.92247933149 0.07752072811
0.00000000000 0.94329828024 0.05670173094
0.00000000000 0.98621594906 0.01378402859
0.00000000000 0.94463282824 0.05536710843
1.00000000000 0.03901813552 0.96098190546
0.00000000000 0.98142242432 0.01857752725
0.00000000000 0.98764860630 0.01235140674
0.00000000000 0.98161339760 0.01838654652
0.00000000000 0.98755228519 0.01244771387
0.00000000000 0.95668530464 0.04331468046
0.00000000000 0.13905444741 0.86094558239
0.00000000000 0.70229446888 0.29770553112
0.00000000000 0.96042883396 0.03957118839
1.00000000000 0.02912121080 0.97087877989
1.00000000000 0.02150034346 0.97849965096
0.00000000000 0.96519798040 0.03480205312
0.00000000000 0.97006601095 0.02993401140
0.00000000000 0.69550293684 0.30449706316
0.00000000000 0.92561978102 0.07438019663
0.00000000000 0.98739361763 0.01260636933
0.00000000000 0.04056379944 0.95943623781
0.00000000000 0.98500120640 0.01499876101
0.00000000000 0.98581701517 0.01418293547
0.00000000000 0.06828909367 0.93171089888
0.00000000000 0.33912026882 0.66087973118
1.00000000000 0.12843835354 0.87156164646
0.00000000000 0.94121599197 0.05878407508
0.00000000000 0.98538243771 0.01461752225
0.00000000000 0.96409434080 0.03590568155
0.00000000000 0.44104233384 0.55895763636
0.00000000000 0.68468731642 0.31531265378
1.00000000000 0.19072113931 0.80927890539
0.00000000000 0.08094903082 0.91905093193
0.00000000000 0.97600084543 0.02399915271
0.00000000000 0.76839762926 0.23160229623
0.00000000000 0.98372513056 0.01627490669
0.00000000000 0.07506828010 0.92493170500
0.00000000000 0.98811542988 0.01188461110
0.00000000000 0.96401411295 0.03598582745
0.00000000000 0.95394206047 0.04605794698
1.00000000000 0.20846915245 0.79153090715
0.00000000000 0.98804676533 0.01195322257
0.00000000000 0.97349822521 0.02650175244
0.00000000000 0.50700527430 0.49299475551
0.00000000000 0.95714932680 0.04285067320
0.00000000000 0.95768326521 0.04231673479
0.00000000000 0.98187905550 0.01812090911
0.00000000000 0.88764846325 0.11235161126
0.00000000000 0.92724937201 0.07275069505
0.00000000000 0.04321986809 0.95678013563
0.00000000000 0.82514029741 0.17485967278
0.00000000000 0.20512147248 0.79487848282
0.00000000000 0.95125889778 0.04874113575
0.00000000000 0.37434414029 0.62565588951
0.00000000000 0.97887724638 0.02112275548
1.00000000000 0.02343296260 0.97656702995
0.00000000000 0.46082264185 0.53917735815
1.00000000000 0.23429033160 0.76570963860
0.00000000000 0.02289811149 0.97710186243
1.00000000000 0.02036356367 0.97963643074
0.00000000000 0.03897446766 0.96102547646
0.00000000000 0.11562849581 0.88437151909
0.00000000000 0.98368835449 0.01631164923
0.00000000000 0.98149818182 0.01850177720
0.00000000000 0.98762929440 0.01237076242
0.00000000000 0.94886744022 0.05113252252
0.00000000000 0.87301307917 0.12698687613
0.00000000000 0.98670095205 0.01329901721
0.00000000000 0.02793183550 0.97206813097
0.00000000000 0.95221871138 0.04778123647
0.00000000000 0.98778450489 0.01221549604
0.00000000000 0.23603335023 0.76396661997
0.00000000000 0.58131396770 0.41868603230
0.00000000000 0.74671930075 0.25328072906
1.00000000000 0.07439316064 0.92560684681
1.00000000000 0.02262957394 0.97737044096
1.00000000000 0.02034984715 0.97965013981
0.00000000000 0.93391627073 0.06608366221
0.00000000000 0.90559267998 0.09440730512
0.00000000000 0.04519258440 0.95480746031
0.00000000000 0.96621209383 0.03378793597
0.00000000000 0.98648583889 0.01351414062
1.00000000000 0.05349821597 0.94650179148
0.00000000000 0.98205941916 0.01794054918
1.00000000000 0.03491041437 0.96508961916
1.00000000000 0.03373952955 0.96626049280
0.00000000000 0.98609215021 0.01390789822
0.00000000000 0.76963222027 0.23036774993
0.00000000000 0.96868658066 0.03131335974
0.00000000000 0.98090326786 0.01909671910
0.00000000000 0.98420953751 0.01579041407
0.00000000000 0.02890244871 0.97109758854
0.00000000000 0.91022664309 0.08977331966
0.00000000000 0.95629996061 0.04369998351
0.00000000000 0.77598547935 0.22401449084
0.00000000000 0.98068785667 0.01931208931
0.00000000000 0.96335631609 0.03664373979
0.00000000000 0.93650513887 0.06349485368
1.00000000000 0.22419272363 0.77580732107
0.00000000000 0.98688334227 0.01311671548
0.00000000000 0.68355554342 0.31644442677
0.00000000000 0.97767454386 0.02232547291
1.00000000000 0.98778253794 0.01221743412
0.00000000000 0.98309928179 0.01690079086
0.00000000000 0.98769348860 0.01230655145
0.00000000000 0.67911362648 0.32088634372
0.00000000000 0.54461789131 0.45538204908
0.00000000000 0.97990673780 0.02009326220
0.00000000000 0.98657214642 0.01342783775
1.00000000000 0.37201118469 0.62798881531
0.00000000000 0.98628634214 0.01371366903
0.00000000000 0.98644047976 0.01355952118
1.00000000000 0.03746207431 0.96253800392
0.00000000000 0.97910016775 0.02089986205
0.00000000000 0.98413056135 0.01586942747
0.00000000000 0.97517722845 0.02482275479
1.00000000000 0.06409175694 0.93590819836
0.00000000000 0.98801928759 0.01198074874
0.00000000000 0.83867114782 0.16132879257
0.00000000000 0.98810857534 0.01189147867
0.00000000000 0.02015061863 0.97984933853
0.00000000000 0.98799800873 0.01200203411
0.00000000000 0.26679417491 0.73320585489
1.00000000000 0.06297300011 0.93702703714
0.00000000000 0.29479080439 0.70520913601
0.00000000000 0.03574885055 0.96425116062
0.00000000000 0.07733692229 0.92266303301
0.00000000000 0.91996175051 0.08003825694
0.00000000000 0.37922143936 0.62077856064
0.00000000000 0.97732955217 0.02267044596
1.00000000000 0.98436987400 0.01563009992
0.00000000000 0.98201972246 0.01798027195
0.00000000000 0.94135081768 0.05864916369
0.00000000000 0.70806080103 0.29193916917
1.00000000000 0.61772847176 0.38227152824
0.00000000000 0.06624037772 0.93375962973
1.00000000000 0.26936250925 0.73063749075
1.00000000000 0.63068383932 0.36931616068
1.00000000000 0.03570040315 0.96429961920
0.00000000000 0.97903305292 0.02096696571
0.00000000000 0.96678537130 0.03321465477
0.00000000000 0.28806272149 0.71193724871
0.00000000000 0.63081490993 0.36918511987
0.00000000000 0.98064452410 0.01935541444
0.00000000000 0.97593498230 0.02406499349
0.00000000000 0.98685961962 0.01314035151
0.00000000000 0.94385188818 0.05614814907
0.00000000000 0.73601889610 0.26398110390
1.00000000000 0.02243116871 0.97756880522
1.00000000000 0.02311311103 0.97688692808
0.00000000000 0.15973415971 0.84026587009
0.00000000000 0.04334653541 0.95665341616
0.00000000000 0.98717260361 0.01282734144
0.00000000000 0.23762257397 0.76237744093
0.00000000000 0.98364961147 0.01635045558
0.00000000000 0.97987192869 0.02012812532
1.00000000000 0.97622376680 0.02377624251
0.00000000000 0.97136080265 0.02863911353
0.00000000000 0.10599928349 0.89400070906
0.00000000000 0.98096472025 0.01903523877
1.00000000000 0.04030920938 0.95969074965
0.00000000000 0.97630035877 0.02369959094
0.00000000000 0.97883737087 0.02116256393
0.00000000000 0.76581436396 0.23418566585
0.00000000000 0.98677790165 0.01322212536
0.00000000000 0.98628753424 0.01371254027
0.00000000000 0.28933700919 0.71066296101
0.00000000000 0.81451094151 0.18548910320
0.00000000000 0.10940798372 0.89059197903
0.00000000000 0.98726373911 0.01273630559
0.00000000000 0.98682236671 0.01317757834
0.00000000000 0.98480772972 0.01519231685
0.00000000000 0.89054954052 0.10945043713
0.00000000000 0.30854436755 0.69145560265
0.00000000000 0.95733249187 0.04266744107
0.00000000000 0.98770278692 0.01229718886
0.00000000000 0.98786818981 0.01213178132
0.00000000000 0.38601970673 0.61398029327
0.00000000000 0.81186467409 0.18813534081
1.00000000000 0.01935875788 0.98064124584
0.00000000000 0.98121303320 0.01878692210
1.00000000000 0.21822209656 0.78177785873
0.00000000000 0.89151710272 0.10848294944
0.00000000000 0.09033467621 0.90966534615
0.00000000000 0.02108578198 0.97891426086
0.00000000000 0.97949320078 0.02050681598
1.00000000000 0.98721748590 0.01278254297
0.00000000000 0.22665272653 0.77334731817
0.00000000000 0.98789280653 0.01210718695
0.00000000000 0.98732656240 0.01267339569
0.00000000000 0.98773986101 0.01226016600
0.00000000000 0.04164864495 0.95835131407
0.00000000000 0.04164452851 0.95835548639
1.00000000000 0.05321421847 0.94678574800
0.00000000000 0.97875940800 0.02124062553
0.00000000000 0.97802531719 0.02197469957
1.00000000000 0.02535549551 0.97464448214
0.00000000000 0.92008173466 0.07991822809
0.00000000000 0.98686975241 0.01313030161
0.00000000000 0.97218596935 0.02781405486
0.00000000000 0.98282778263 0.01717218570
0.00000000000 0.07719019800 0.92280983925
0.00000000000 0.85444718599 0.14555276930
0.00000000000 0.95978015661 0.04021984339
0.00000000000 0.96628588438 0.03371411562
0.00000000000 0.98652750254 0.01347246394
0.00000000000 0.10635714978 0.89364278316
0.00000000000 0.44622761011 0.55377238989
0.00000000000 0.11917878687 0.88082116842
0.00000000000 0.10209859163 0.89790141582
0.00000000000 0.45268014073 0.54731988907
0.00000000000 0.94923049212 0.05076950788
0.00000000000 0.85042434931 0.14957562089
0.00000000000 0.02299126238 0.97700875998
0.00000000000 0.09244553745 0.90755450726
0.00000000000 0.98714488745 0.01285509020
0.00000000000 0.98793143034 0.01206857525
0.00000000000 0.98262745142 0.01737249643
0.00000000000 0.98710352182 0.01289650332
0.00000000000 0.06042214856 0.93957781792
0.00000000000 0.09129302949 0.90870690346
0.00000000000 0.07662028074 0.92337965965
0.00000000000 0.97408753633 0.02591244318
0.00000000000 0.98820865154 0.01179136429
0.00000000000 0.98262178898 0.01737815514
0.00000000000 0.98762637377 0.01237357687
0.00000000000 0.98812460899 0.01187531836
1.00000000000 0.20062747598 0.79937249422
0.00000000000 0.30692121387 0.69307875633
0.00000000000 0.98804908991 0.01195091382
0.00000000000 0.98768836260 0.01231170073
0.00000000000 0.98832952976 0.01167040970
0.00000000000 0.03330808133 0.96669185162
0.00000000000 0.98458045721 0.01541946083
0.00000000000 0.89168679714 0.10831318796
0.00000000000 0.96629399061 0.03370594233
0.00000000000 0.95686483383 0.04313515872
0.00000000000 0.96504509449 0.03495489806
0.00000000000 0.67000120878 0.32999885082
0.00000000000 0.98664051294 0.01335952245
0.00000000000 0.98709434271 0.01290564239
0.00000000000 0.48356443644 0.51643550396
0.00000000000 0.91447865963 0.08552134037
1.00000000000 0.93009048700 0.06990949810
0.00000000000 0.77651327848 0.22348673642
0.00000000000 0.26327893138 0.73672103882
0.00000000000 0.97900086641 0.02099910937
0.00000000000 0.98836016655 0.01163984928
0.00000000000 0.98663228750 0.01336776465
0.00000000000 0.95925796032 0.04074201733
1.00000000000 0.08816580474 0.91183418036
1.00000000000 0.07396767288 0.92603230476
0.00000000000 0.98511260748 0.01488747075
0.00000000000 0.95118653774 0.04881352559
1.00000000000 0.93380910158 0.06619085371
0.00000000000 0.83524221182 0.16475777328
0.00000000000 0.97882312536 0.02117688395
0.00000000000 0.92945122719 0.07054875791
0.00000000000 0.91568422318 0.08431576192
0.00000000000 0.98815906048 0.01184092369
0.00000000000 0.91390550137 0.08609452844
0.00000000000 0.98083978891 0.01916015707
0.00000000000 0.98853522539 0.01146483514
1.00000000000 0.02278875746 0.97721123695
1.00000000000 0.02347532287 0.97652471066
0.00000000000 0.02588655427 0.97411340475
0.00000000000 0.96368634701 0.03631366789
0.00000000000 0.98736226559 0.01263773534
0.00000000000 0.03329965472 0.96670037508
0.00000000000 0.79454165697 0.20545834303
0.00000000000 0.98493456841 0.01506543718
0.00000000000 0.98763251305 0.01236742549
0.00000000000 0.98418587446 0.01581411622
0.00000000000 0.95633518696 0.04366485029
1.00000000000 0.03393653780 0.96606343985
0.00000000000 0.03864974156 0.96135026217
0.00000000000 0.97683298588 0.02316705696
0.00000000000 0.24341954291 0.75658047199
0.00000000000 0.98671144247 0.01328855380
0.00000000000 0.39619308710 0.60380697250
0.00000000000 0.98407584429 0.01592414267
0.00000000000 0.06373003125 0.93626993895
0.00000000000 0.98512601852 0.01487397216
0.00000000000 0.03665762395 0.96334236860
0.00000000000 0.98597580194 0.01402418967
0.00000000000 0.06284263730 0.93715733290
1.00000000000 0.69991320372 0.30008685589
0.00000000000 0.98311167955 0.01688829809
0.00000000000 0.96280324459 0.03719671443
0.00000000000 0.98669761419 0.01330237743
1.00000000000 0.03267747164 0.96732246876
1.00000000000 0.88953077793 0.11046917737
0.00000000000 0.98725801706 0.01274196059
0.00000000000 0.85926008224 0.14073991776
0.00000000000 0.95261687040 0.04738314450
0.00000000000 0.79258847237 0.20741154253
1.00000000000 0.22002182901 0.77997821569
0.00000000000 0.98543429375 0.01456571184
0.00000000000 0.06447644532 0.93552356958
0.00000000000 0.63208407164 0.36791592836
0.00000000000 0.98654884100 0.01345118694
0.00000000000 0.94854003191 0.05145998299
0.00000000000 0.97449487448 0.02550512180
0.00000000000 0.79481893778 0.20518109202
0.00000000000 0.98831170797 0.01168824267
0.00000000000 0.97658771276 0.02341234870
0.00000000000 0.88131624460 0.11868372560
1.00000000000 0.90052044392 0.09947954118
0.00000000000 0.96896779537 0.03103219531
0.00000000000 0.98577612638 0.01422380190
1.00000000000 0.04232559353 0.95767438412
0.00000000000 0.98740863800 0.01259136666
0.00000000000 0.05935595185 0.94064402580
0.00000000000 0.24219010770 0.75780993700
0.00000000000 0.98133873940 0.01866129227
1.00000000000 0.03442110866 0.96557891369
0.00000000000 0.47286504507 0.52713501453
0.00000000000 0.03359125555 0.96640878916
0.00000000000 0.98159098625 0.01840893924
0.00000000000 0.97369068861 0.02630938590
0.00000000000 0.98541659117 0.01458344888
1.00000000000 0.02737364732 0.97262638807
0.00000000000 0.87177449465 0.12822547555
1.00000000000 0.23310489953 0.76689505577
0.00000000000 0.05405663326 0.94594341516
0.00000000000 0.98679381609 0.01320614386
0.00000000000 0.96960169077 0.03039832972
0.00000000000 0.98788690567 0.01211306825
1.00000000000 0.22157685459 0.77842319012
0.00000000000 0.98346161842 0.01653836481
0.00000000000 0.47085061669 0.52914941311
0.00000000000 0.98571842909 0.01428150479
0.00000000000 0.98588889837 0.01411116496
0.00000000000 0.95119827986 0.04880167544
0.00000000000 0.98105067015 0.01894932427
0.00000000000 0.92196083069 0.07803921402
0.00000000000 0.97924441099 0.02075563744
0.00000000000 0.97952282429 0.02047721855
0.00000000000 0.18356466293 0.81643533707
0.00000000000 0.94574671984 0.05425323546
0.00000000000 0.95785570145 0.04214433208
0.00000000000 0.03392929956 0.96607065201
0.00000000000 0.98333501816 0.01666498557
0.00000000000 0.98489063978 0.01510934718
1.00000000000 0.03022122383 0.96977877617
0.00000000000 0.98547935486 0.01452067588
0.00000000000 0.98761904240 0.01238092128
0.00000000000 0.98319762945 0.01680230536
0.00000000000 0.98566520214 0.01433476526
0.00000000000 0.98553723097 0.01446277648
0.00000000000 0.91355693340 0.08644303679
1.00000000000 0.04235489666 0.95764505863
0.00000000000 0.98037886620 0.01962106861
0.00000000000 0.97219252586 0.02780749276
0.00000000000 0.98631590605 0.01368408278
0.00000000000 0.82035255432 0.17964738607
0.00000000000 0.97047281265 0.02952711843
1.00000000000 0.03285472468 0.96714526415
0.00000000000 0.95594710112 0.04405283183
0.00000000000 0.02613261901 0.97386735678
0.00000000000 0.10638915747 0.89361083508
0.00000000000 0.03260772303 0.96739232540
1.00000000000 0.04880977795 0.95119017363
0.00000000000 0.03079169430 0.96920824051
0.00000000000 0.74310493469 0.25689500570
1.00000000000 0.04694111273 0.95305889845
0.00000000000 0.98501145840 0.01498855092
0.00000000000 0.88817435503 0.11182561517
0.00000000000 0.19483651221 0.80516350269
0.00000000000 0.98768973351 0.01231028605
0.00000000000 0.05189207569 0.94810795784
0.00000000000 0.94491463900 0.05508544296
1.00000000000 0.36002457142 0.63997536898
1.00000000000 0.02703521959 0.97296470404
0.00000000000 0.98549544811 0.01450453326
1.00000000000 0.98592662811 0.01407338306
0.00000000000 0.03602622822 0.96397382021
0.00000000000 0.98141038418 0.01858963445
0.00000000000 0.77959311008 0.22040690482
0.00000000000 0.98475754261 0.01524241455
1.00000000000 0.16397158802 0.83602839708
0.00000000000 0.98469895124 0.01530102920
0.00000000000 0.98737245798 0.01262755319
0.00000000000 0.98645728827 0.01354264840
0.00000000000 0.08641385287 0.91358613968
0.00000000000 0.93293499947 0.06706496328
0.00000000000 0.98726671934 0.01273321733
0.00000000000 0.97603434324 0.02396572754
0.00000000000 0.98399215937 0.01600784063
0.00000000000 0.80149722099 0.19850271940
0.00000000000 0.84123110771 0.15876889229
0.00000000000 0.04830960184 0.95169037580
0.00000000000 0.92521989346 0.07478009164
0.00000000000 0.97936296463 0.02063709870
0.00000000000 0.98531401157 0.01468590926
1.00000000000 0.77414435148 0.22585563362
1.00000000000 0.97974544764 0.02025459148
0.00000000000 0.98745673895 0.01254324894
1.00000000000 0.11445248872 0.88554745913
0.00000000000 0.95683926344 0.04316068068
0.00000000000 0.95516383648 0.04483617842
0.00000000000 0.98429477215 0.01570525020
0.00000000000 0.04355904087 0.95644098520
0.00000000000 0.97176963091 0.02823039703
1.00000000000 0.77499407530 0.22500593960
0.00000000000 0.95250046253 0.04749954492
0.00000000000 0.97561478615 0.02438523993
1.00000000000 0.02061295509 0.97938710451
0.00000000000 0.98830622435 0.01169375889
0.00000000000 0.97125321627 0.02874679677
0.00000000000 0.98484379053 0.01515620202
0.00000000000 0.98776519299 0.01223475579
0.00000000000 0.57769697905 0.42230308056
1.00000000000 0.11261238158 0.88738757372
0.00000000000 0.98765820265 0.01234180108
0.00000000000 0.98553675413 0.01446324587
0.00000000000 0.03779710084 0.96220290661
0.00000000000 0.98347914219 0.01652090065
0.00000000000 0.93002730608 0.06997276098
0.00000000000 0.52405792475 0.47594210505
0.00000000000 0.94684559107 0.05315435678
0.00000000000 0.94279330969 0.05720666796
0.00000000000 0.98630225658 0.01369781140
0.00000000000 0.97475183010 0.02524816804
0.00000000000 0.64517050982 0.35482946038
0.00000000000 0.98446029425 0.01553965546
0.00000000000 0.07767204195 0.92232799530
0.00000000000 0.98162847757 0.01837158203
0.00000000000 0.98361051083 0.01638953015
0.00000000000 0.98467320204 0.01532679889
0.00000000000 0.94755119085 0.05244883895
0.00000000000 0.18126761913 0.81873232126
0.00000000000 0.77635627985 0.22364374995
0.00000000000 0.98772162199 0.01227834541
1.00000000000 0.03225615248 0.96774387360
0.00000000000 0.02432245389 0.97567754984
0.00000000000 0.98441237211 0.01558762509
0.00000000000 0.97487199306 0.02512795478
0.00000000000 0.98460465670 0.01539535914
0.00000000000 0.98104470968 0.01895534992
0.00000000000 0.98516464233 0.01483538467
0.00000000000 0.97394502163 0.02605499886
0.00000000000 0.95862752199 0.04137251899
0.00000000000 0.98294168711 0.01705828868
0.00000000000 0.90468555689 0.09531451017
0.00000000000 0.97552978992 0.02447025664
0.00000000000 0.98618602753 0.01381397061
0.00000000000 0.97543394566 0.02456609905
0.00000000000 0.98246216774 0.01753786579
0.00000000000 0.98296606541 0.01703390293
0.00000000000 0.75871533155 0.24128468335
1.00000000000 0.06933057308 0.93066948652
0.00000000000 0.86996501684 0.13003499806
0.00000000000 0.85575056076 0.14424936473
0.00000000000 0.06017696112 0.93982309103
0.00000000000 0.02057364769 0.97942632437
0.00000000000 0.98755651712 0.01244346332
1.00000000000 0.92006361485 0.07993639261
0.00000000000 0.98270398378 0.01729603484
0.00000000000 0.98128247261 0.01871751435
0.00000000000 0.84417140484 0.15582862496
0.00000000000 0.98732692003 0.01267307904
1.00000000000 0.01806815714 0.98193180561
0.00000000000 0.02535982803 0.97464019060
0.00000000000 0.05987020582 0.94012981653
0.00000000000 0.95527207851 0.04472793639
0.00000000000 0.98667752743 0.01332242601
0.00000000000 0.82955360413 0.17044639587
0.00000000000 0.03378639370 0.96621364355
0.00000000000 0.98161089420 0.01838914864
0.00000000000 0.98834013939 0.01165991556
0.00000000000 0.82024407387 0.17975594103
1.00000000000 0.02106085978 0.97893917561
0.00000000000 0.98471337557 0.01528655086
0.00000000000 0.97430157661 0.02569839545
0.00000000000 0.09627905488 0.90372091532
0.00000000000 0.91711741686 0.08288253099
1.00000000000 0.02101678401 0.97898328304
0.00000000000 0.28347054124 0.71652942896
0.00000000000 0.02293716371 0.97706282139
0.00000000000 0.91375011206 0.08624992520
0.00000000000 0.98249232769 0.01750772074
0.00000000000 0.43456611037 0.56543391943
0.00000000000 0.98838913441 0.01161083765
0.00000000000 0.88297611475 0.11702387035
0.00000000000 0.98556303978 0.01443699282
1.00000000000 0.89096891880 0.10903103650
0.00000000000 0.14815922081 0.85184079409
0.00000000000 0.98841953278 0.01158046909
0.00000000000 0.97775316238 0.02224681526
0.00000000000 0.98851448298 0.01148554031
1.00000000000 0.98570525646 0.01429476123
0.00000000000 0.89013385773 0.10986612737
0.00000000000 0.03580683842 0.96419316530
0.00000000000 0.91890639067 0.08109366149
0.00000000000 0.98581451178 0.01418546215
0.00000000000 0.98413068056 0.01586925425
0.00000000000 0.14623646438 0.85376358032
0.00000000000 0.98729836941 0.01270170230
1.00000000000 0.98677802086 0.01322192512
0.00000000000 0.98374372721 0.01625625603
0.00000000000 0.98075872660 0.01924127713
0.00000000000 0.25397029519 0.74602973461
0.00000000000 0.09764479101 0.90235519409
0.00000000000 0.98681318760 0.01318682730
0.00000000000 0.97457820177 0.02542177774
1.00000000000 0.09118215740 0.90881788731
0.00000000000 0.36925184727 0.63074809313
0.00000000000 0.98787921667 0.01212079730
1.00000000000 0.02776128985 0.97223871946
0.00000000000 0.52654546499 0.47345453501
0.00000000000 0.98683714867 0.01316283364
0.00000000000 0.07333283126 0.92666715384
0.00000000000 0.81843066216 0.18156935275
0.00000000000 0.98653525114 0.01346475910
1.00000000000 0.19864137471 0.80135864019
0.00000000000 0.84719181061 0.15280820429
1.00000000000 0.03439032659 0.96560961008
0.00000000000 0.98627465963 0.01372539811
0.00000000000 0.96407127380 0.03592872992
0.00000000000 0.95752918720 0.04247076437
0.00000000000 0.16124348342 0.83875656128
0.00000000000 0.03534117714 0.96465885639
0.00000000000 0.37448793650 0.62551200390
0.00000000000 0.26648581028 0.73351424932
1.00000000000 0.20559285581 0.79440712929
1.00000000000 0.03335702792 0.96664297581
0.00000000000 0.98565256596 0.01434741728
0.00000000000 0.98223811388 0.01776194572
0.00000000000 0.98434084654 0.01565915719
0.00000000000 0.08080250025 0.91919744015
0.00000000000 0.96252065897 0.03747938946
0.00000000000 0.98581981659 0.01418014988
0.00000000000 0.98321563005 0.01678434946
0.00000000000 0.98189479113 0.01810522191
0.00000000000 0.97900223732 0.02099772170
0.00000000000 0.98597568274 0.01402428839
0.00000000000 0.93917030096 0.06082969531
0.00000000000 0.02075046115 0.97924953699
0.00000000000 0.93989044428 0.06010953337
1.00000000000 0.17126198113 0.82873803377
0.00000000000 0.07261271030 0.92738723755
0.00000000000 0.98667740822 0.01332258992
0.00000000000 0.06669161469 0.93330836296
0.00000000000 0.93321532011 0.06678468734
1.00000000000 0.49496874213 0.50503122807
1.00000000000 0.53057134151 0.46942868829
0.00000000000 0.94494962692 0.05505040661
0.00000000000 0.54040741920 0.45959261060
0.00000000000 0.98543536663 0.01456467714
1.00000000000 0.03887957707 0.96112042665
0.00000000000 0.98359239101 0.01640758663
0.00000000000 0.98697566986 0.01302431989
1.00000000000 0.05824983492 0.94175022840
0.00000000000 0.50710839033 0.49289160967
0.00000000000 0.03839098290 0.96160906553
0.00000000000 0.84846025705 0.15153974295
0.00000000000 0.82481861115 0.17518144846
0.00000000000 0.90175116062 0.09824880958
0.00000000000 0.98482841253 0.01517157629
1.00000000000 0.85789299011 0.14210700989
1.00000000000 0.02018295787 0.97981709242
1.00000000000 0.02086719871 0.97913283110
0.00000000000 0.98807889223 0.01192105189
0.00000000000 0.26170426607 0.73829573393
0.00000000000 0.97442018986 0.02557980269
0.00000000000 0.98476737738 0.01523267012
0.00000000000 0.98776221275 0.01223775838
0.00000000000 0.69631373882 0.30368626118
0.00000000000 0.98676955700 0.01323042717
0.00000000000 0.92653262615 0.07346739620
0.00000000000 0.98671084642 0.01328921039
1.00000000000 0.02481092885 0.97518908978
0.00000000000 0.04875213280 0.95124787092
0.00000000000 0.92898237705 0.07101758569
0.00000000000 0.96733641624 0.03266361356
0.00000000000 0.80001008511 0.19998995960
0.00000000000 0.92420899868 0.07579101622
0.00000000000 0.98745977879 0.01254021376
0.00000000000 0.52763539553 0.47236457467
1.00000000000 0.09515651315 0.90484350920
0.00000000000 0.98659503460 0.01340502780
1.00000000000 0.80638211966 0.19361789525
0.00000000000 0.97836840153 0.02163158916
0.00000000000 0.93220394850 0.06779602170
0.00000000000 0.97926622629 0.02073374949
1.00000000000 0.02445414290 0.97554588318
0.00000000000 0.98710179329 0.01289819647
0.00000000000 0.98621964455 0.01378032193
0.00000000000 0.94568628073 0.05431367084
0.00000000000 0.96557283401 0.03442720324
1.00000000000 0.03189433366 0.96810561419
1.00000000000 0.02058615535 0.97941380739
0.00000000000 0.98026841879 0.01973159052
0.00000000000 0.98786884546 0.01213113032
1.00000000000 0.09776308388 0.90223687887
0.00000000000 0.06601274759 0.93398720026
0.00000000000 0.94732111692 0.05267892405
0.00000000000 0.98697483540 0.01302522793
0.00000000000 0.98623102903 0.01376897935
0.00000000000 0.98021268845 0.01978732273
0.00000000000 0.74115943909 0.25884053111
1.00000000000 0.24659714103 0.75340288877
0.00000000000 0.37708294392 0.62291699648
0.00000000000 0.93168950081 0.06831053644
1.00000000000 0.02323739231 0.97676259279
0.00000000000 0.96783810854 0.03216184676
0.00000000000 0.98354005814 0.01646001451
0.00000000000 0.92424088717 0.07575912029
0.00000000000 0.02381986566 0.97618013620
0.00000000000 0.98665916920 0.01334081031
0.00000000000 0.98850083351 0.01149915345
0.00000000000 0.87567579746 0.12432415783
1.00000000000 0.02754085138 0.97245919704
0.00000000000 0.98479175568 0.01520821825
0.00000000000 0.91621452570 0.08378545195
0.00000000000 0.98122793436 0.01877205633
0.00000000000 0.12950007617 0.87049990892
0.00000000000 0.94754916430 0.05245089158
0.00000000000 0.97780299187 0.02219706960
0.00000000000 0.37514171004 0.62485831976
0.00000000000 0.03375747800 0.96624249220
1.00000000000 0.02358699031 0.97641295195
0.00000000000 0.97246575356 0.02753431909
0.00000000000 0.98099750280 0.01900251582
0.00000000000 0.97294980288 0.02705011889
0.00000000000 0.98475790024 0.01524212118
0.00000000000 0.98631882668 0.01368117426
0.00000000000 0.96726059914 0.03273939714
0.00000000000 0.53760969639 0.46239033341
1.00000000000 0.02890308946 0.97109693289
0.00000000000 0.98340928555 0.01659073494
0.00000000000 0.43107071519 0.56892931461
0.00000000000 0.13423107564 0.86576890945
0.00000000000 0.98175400496 0.01824600436
0.00000000000 0.07968107611 0.92031896114
0.00000000000 0.81755435467 0.18244566023
0.00000000000 0.86678570509 0.13321428001
0.00000000000 0.98041325808 0.01958673447
0.00000000000 0.98657298088 0.01342699025
1.00000000000 0.29031533003 0.70968466997
0.00000000000 0.98473060131 0.01526933443
0.00000000000 0.97792130709 0.02207873203
0.00000000000 0.98754870892 0.01245133020
0.00000000000 0.95341515541 0.04658487067
0.00000000000 0.98538774252 0.01461219415
0.00000000000 0.98360228539 0.01639768668
0.00000000000 0.64808225632 0.35191771388
1.00000000000 0.14976601303 0.85023397207
0.00000000000 0.89860391617 0.10139602423
0.00000000000 0.02584868670 0.97415131330
0.00000000000 0.93828797340 0.06171197072
0.00000000000 0.98769694567 0.01230302267
0.00000000000 0.97415924072 0.02584075928
1.00000000000 0.02401124872 0.97598880529
1.00000000000 0.96661847830 0.03338152170
0.00000000000 0.98448824883 0.01551174372
0.00000000000 0.93488216400 0.06511786580
0.00000000000 0.98480254412 0.01519748196
0.00000000000 0.98303925991 0.01696075685
0.00000000000 0.59194153547 0.40805849433
0.00000000000 0.94275134802 0.05724864826
0.00000000000 0.98382794857 0.01617202349
0.00000000000 0.41706117988 0.58293884993
0.00000000000 0.92017966509 0.07982038707
1.00000000000 0.03541405499 0.96458601952
0.00000000000 0.85188287497 0.14811715484
0.00000000000 0.98016476631 0.01983524673
0.00000000000 0.98794376850 0.01205622125
0.00000000000 0.80914056301 0.19085937738
0.00000000000 0.96959745884 0.03040250205
0.00000000000 0.97314870358 0.02685128152
0.00000000000 0.98568546772 0.01431450713
0.00000000000 0.97532165051 0.02467837930
0.00000000000 0.27984887362 0.72015106678
0.00000000000 0.65811526775 0.34188473225
0.00000000000 0.84927642345 0.15072362125
0.00000000000 0.97553819418 0.02446179464
0.00000000000 0.98628228903 0.01371776406
1.00000000000 0.93016833067 0.06983164698
0.00000000000 0.98427295685 0.01572705992
0.00000000000 0.96180760860 0.03819243610
0.00000000000 0.98797905445 0.01202095207
0.00000000000 0.98843610287 0.01156385429
0.00000000000 0.45176509023 0.54823487997
0.00000000000 0.98777174950 0.01222826913
0.00000000000 0.98576247692 0.01423757616
1.00000000000 0.04439275712 0.95560723543
0.00000000000 0.04616184160 0.95383816957
0.00000000000 0.97950828075 0.02049174719
0.00000000000 0.96157610416 0.03842393309
0.00000000000 0.97954297066 0.02045703493
0.00000000000 0.15774917603 0.84225088358
1.00000000000 0.09859307855 0.90140688419
0.00000000000 0.98790526390 0.01209469792
0.00000000000 0.93794828653 0.06205168739
0.00000000000 0.81803119183 0.18196877837
1.00000000000 0.21205714345 0.78794282675
0.00000000000 0.96640765667 0.03359230608
1.00000000000 0.04553435370 0.95446568727
0.00000000000 0.95848107338 0.04151894525
0.00000000000 0.98762029409 0.01237972081
0.00000000000 0.98048776388 0.01951228268
0.00000000000 0.98411935568 0.01588066854
0.00000000000 0.91220080853 0.08779919147
0.00000000000 0.04016418010 0.95983582735
0.00000000000 0.98832148314 0.01167844795
0.00000000000 0.93684232235 0.06315763295
0.00000000000 0.96624004841 0.03376000375
0.00000000000 0.98704463243 0.01295538433
0.00000000000 0.23677861691 0.76322138309
0.00000000000 0.90840071440 0.09159936756
0.00000000000 0.96725076437 0.03274923936
0.00000000000 0.96426743269 0.03573256359
1.00000000000 0.03357648849 0.96642345190
0.00000000000 0.98359942436 0.01640054025
0.00000000000 0.98841106892 0.01158896927
0.00000000000 0.98518085480 0.01481913310
0.00000000000 0.12985311449 0.87014687061
0.00000000000 0.98543870449 0.01456131786
0.00000000000 0.97907972336 0.02092026174
0.00000000000 0.98447394371 0.01552607212
0.00000000000 0.36042693257 0.63957303762
0.00000000000 0.96610116959 0.03389878944
1.00000000000 0.96982508898 0.03017491102
0.00000000000 0.75750690699 0.24249312282
0.00000000000 0.98278945684 0.01721054874
0.00000000000 0.94097208977 0.05902789906
0.00000000000 0.02857409045 0.97142595053
0.00000000000 0.41227909923 0.58772087097
0.00000000000 0.52390331030 0.47609671950
0.00000000000 0.97523528337 0.02476476319
0.00000000000 0.97649252415 0.02350740880
0.00000000000 0.98599070311 0.01400926244
0.00000000000 0.98515480757 0.01484514959
0.00000000000 0.98493307829 0.01506693847
1.00000000000 0.01874279417 0.98125720024
1.00000000000 0.05678137019 0.94321858883
0.00000000000 0.52997642756 0.47002354264
1.00000000000 0.02618784271 0.97381216288
0.00000000000 0.97531008720 0.02468991466
0.00000000000 0.98799252510 0.01200741809
0.00000000000 0.97220253944 0.02779744007
0.00000000000 0.97435915470 0.02564083785
0.00000000000 0.03626423329 0.96373581886
0.00000000000 0.96227210760 0.03772789240
0.00000000000 0.89295142889 0.10704860836
0.00000000000 0.70560860634 0.29439139366
0.00000000000 0.98542755842 0.01457237173
0.00000000000 0.98423784971 0.01576213725
0.00000000000 0.84278869629 0.15721134841
0.00000000000 0.84592407942 0.15407589078
0.00000000000 0.96793794632 0.03206200898
0.00000000000 0.98627126217 0.01372868288
1.00000000000 0.02537161857 0.97462838888
0.00000000000 0.79388380051 0.20611621439
0.00000000000 0.33846139908 0.66153854132
0.00000000000 0.98289501667 0.01710502803
1.00000000000 0.23686946929 0.76313048601
0.00000000000 0.07706872374 0.92293125391
0.00000000000 0.98691666126 0.01308340207
1.00000000000 0.06306973100 0.93693023920
0.00000000000 0.92591351271 0.07408649474
0.00000000000 0.27729490399 0.72270512581
0.00000000000 0.96291995049 0.03708009794
1.00000000000 0.38109344244 0.61890661716
0.00000000000 0.98803782463 0.01196218561
0.00000000000 0.98668354750 0.01331646089
0.00000000000 0.98781663179 0.01218333375
0.00000000000 0.19101965427 0.80898028612
0.00000000000 0.90303868055 0.09696132690
1.00000000000 0.06329960376 0.93670034409
0.00000000000 0.97864395380 0.02135603689
0.00000000000 0.98706775904 0.01293224469
0.00000000000 0.75903904438 0.24096098542
0.00000000000 0.98744720221 0.01255274378
0.00000000000 0.12340506911 0.87659490108
0.00000000000 0.95719540119 0.04280460998
0.00000000000 0.98612034321 0.01387963444
0.00000000000 0.57586365938 0.42413637042
0.00000000000 0.12220059335 0.87779939175
0.00000000000 0.93867087364 0.06132906303
0.00000000000 0.03777213395 0.96222782135
0.00000000000 0.69889920950 0.30110073090
0.00000000000 0.98817980289 0.01182014123
1.00000000000 0.29248696566 0.70751303434
0.00000000000 0.98469418287 0.01530576497
0.00000000000 0.97748291492 0.02251702361
0.00000000000 0.97036504745 0.02963499539
0.00000000000 0.98742061853 0.01257936750
0.00000000000 0.98281061649 0.01718938351
0.00000000000 0.98615163565 0.01384842768
0.00000000000 0.97094315290 0.02905686386
0.00000000000 0.98266184330 0.01733813807
0.00000000000 0.49141645432 0.50858348608
0.00000000000 0.98705881834 0.01294115279
0.00000000000 0.03177417442 0.96822583675
0.00000000000 0.98685210943 0.01314784028
0.00000000000 0.98708087206 0.01291915867
0.00000000000 0.97469747066 0.02530248649
0.00000000000 0.97628629208 0.02371367998
1.00000000000 0.97967302799 0.02032697760
0.00000000000 0.93702483177 0.06297519803
0.00000000000 0.96616244316 0.03383757919
0.00000000000 0.71310502291 0.28689494729
0.00000000000 0.03539555147 0.96460443735
1.00000000000 0.01944467425 0.98055535555
1.00000000000 0.05775616691 0.94224381447
0.00000000000 0.26522180438 0.73477816582
0.00000000000 0.97770053148 0.02229947783
0.00000000000 0.98494994640 0.01505005639
0.00000000000 0.97901672125 0.02098321356
0.00000000000 0.03446844593 0.96553158760
0.00000000000 0.98563265800 0.01436735783
0.00000000000 0.98601311445 0.01398689952
0.00000000000 0.25007724762 0.74992275238
0.00000000000 0.98783946037 0.01216061879
0.00000000000 0.31623178720 0.68376821280
0.00000000000 0.98738700151 0.01261293516
0.00000000000 0.10489163548 0.89510834217
1.00000000000 0.07625760138 0.92374235392
0.00000000000 0.97834283113 0.02165719122
0.00000000000 0.01974853873 0.98025149107
0.00000000000 0.98495447636 0.01504549757
1.00000000000 0.95976555347 0.04023446143
0.00000000000 0.98434352875 0.01565646008
1.00000000000 0.02952813543 0.97047179937
0.00000000000 0.98705798388 0.01294198819
0.00000000000 0.86698913574 0.13301086426
0.00000000000 0.51866698265 0.48133298755
0.00000000000 0.05465986952 0.94534015656
0.00000000000 0.36557677388 0.63442325592
0.00000000000 0.97117608786 0.02882395685
0.00000000000 0.96259075403 0.03740924597
0.00000000000 0.97536677122 0.02463324554
0.00000000000 0.94867944717 0.05132058263
0.00000000000 0.98411196470 0.01588801667
0.00000000000 0.98684549332 0.01315456256
0.00000000000 0.09676696360 0.90323305130
0.00000000000 0.60930109024 0.39069890976
0.00000000000 0.98492830992 0.01507170126
0.00000000000 0.98283827305 0.01716173440
0.00000000000 0.98726081848 0.01273922622
0.00000000000 0.98604089022 0.01395909674
0.00000000000 0.56308609247 0.43691387773
0.00000000000 0.54780966043 0.45219030976
0.00000000000 0.98497450352 0.01502554864
1.00000000000 0.02701606229 0.97298389673
0.00000000000 0.98749893904 0.01250103116
0.00000000000 0.97778111696 0.02221891098
0.00000000000 0.68610006571 0.31389996409
0.00000000000 0.98095530272 0.01904465817
1.00000000000 0.05517426133 0.94482576847
0.00000000000 0.97687464952 0.02312538773
0.00000000000 0.98667198420 0.01332805678
0.00000000000 0.53602057695 0.46397948265
0.00000000000 0.98185032606 0.01814970188
0.00000000000 0.97493612766 0.02506385557
0.00000000000 0.94396102428 0.05603897944
1.00000000000 0.06009524688 0.93990480900
1.00000000000 0.98503047228 0.01496949699
0.00000000000 0.98810750246 0.01189248636
0.00000000000 0.47034174204 0.52965825796
0.00000000000 0.98651295900 0.01348700374
0.00000000000 0.97954374552 0.02045623958
0.00000000000 0.98091953993 0.01908046566
0.00000000000 0.53162509203 0.46837493777
0.00000000000 0.97614800930 0.02385192923
1.00000000000 0.02777073160 0.97222924232
0.00000000000 0.98844295740 0.01155707054
0.00000000000 0.98201054335 0.01798941009
0.00000000000 0.07819743454 0.92180258036
0.00000000000 0.02685536258 0.97314465046
0.00000000000 0.83884739876 0.16115266085
0.00000000000 0.57224780321 0.42775219679
1.00000000000 0.02086749114 0.97913247347
1.00000000000 0.27176892757 0.72823107243
0.00000000000 0.98855537176 0.01144465152
0.00000000000 0.98730903864 0.01269093156
0.00000000000 0.98463916779 0.01536079776
0.00000000000 0.98636406660 0.01363596227
0.00000000000 0.12208871543 0.87791126966
0.00000000000 0.98682224751 0.01317778323
0.00000000000 0.98306840658 0.01693163626
0.00000000000 0.96404814720 0.03595190123
0.00000000000 0.46354386210 0.53645616770
0.00000000000 0.98569726944 0.01430269144
0.00000000000 0.26648920774 0.73351079226
0.00000000000 0.96364390850 0.03635608405
0.00000000000 0.25882768631 0.74117231369
0.00000000000 0.98859661818 0.01140333619
0.00000000000 0.98748338223 0.01251666434
0.00000000000 0.23397496343 0.76602500677
0.00000000000 0.08110112697 0.91889894009
0.00000000000 0.96899968386 0.03100035340
1.00000000000 0.09093248099 0.90906751156
0.00000000000 0.05464736372 0.94535261393
0.00000000000 0.95602512360 0.04397489130
0.00000000000 0.97988128662 0.02011867613
0.00000000000 0.98752683401 0.01247311290
0.00000000000 0.96806496382 0.03193501011
0.00000000000 0.98664122820 0.01335883141
0.00000000000 0.98667448759 0.01332547329
0.00000000000 0.98764681816 0.01235322282
1.00000000000 0.05087070167 0.94912934303
0.00000000000 0.21403737366 0.78596258163
1.00000000000 0.02019661479 0.97980338335
0.00000000000 0.97008812428 0.02991194278
1.00000000000 0.96719133854 0.03280863166
0.00000000000 0.98473501205 0.01526494045
0.00000000000 0.03858307004 0.96141695976
0.00000000000 0.06188530847 0.93811464310
0.00000000000 0.86156529188 0.13843467832
0.00000000000 0.61531412601 0.38468584418
0.00000000000 0.33797210455 0.66202783585
0.00000000000 0.23672007024 0.76327991486
1.00000000000 0.02034220472 0.97965782881
0.00000000000 0.98724734783 0.01275267825
0.00000000000 0.94138085842 0.05861916021
0.00000000000 0.50149101019 0.49850898981
0.00000000000 0.02422636002 0.97577363253
0.00000000000 0.96719688177 0.03280308098
0.00000000000 0.84871608019 0.15128396451
1.00000000000 0.15615771711 0.84384232759
0.00000000000 0.08935900033 0.91064095497
0.00000000000 0.08421281725 0.91578722000
0.00000000000 0.98721355200 0.01278649829
0.00000000000 0.95467847586 0.04532156512
0.00000000000 0.08230897784 0.91769099236
0.00000000000 0.98165577650 0.01834424399
0.00000000000 0.70190674067 0.29809322953
0.00000000000 0.53214782476 0.46785217524
0.00000000000 0.72999519110 0.27000480890
0.00000000000 0.93717199564 0.06282802671
0.00000000000 0.50233197212 0.49766802788
0.00000000000 0.93401551247 0.06598453969
0.00000000000 0.90269416571 0.09730584919
0.00000000000 0.04011083022 0.95988917351
1.00000000000 0.39053872228 0.60946130753
0.00000000000 0.03377697617 0.96622300148
0.00000000000 0.98590552807 0.01409447193
0.00000000000 0.98476576805 0.01523428690
0.00000000000 0.98630350828 0.01369646471
0.00000000000 0.98648262024 0.01351741515
0.00000000000 0.98794311285 0.01205689646
0.00000000000 0.98476612568 0.01523386408
0.00000000000 0.98810917139 0.01189087331
0.00000000000 0.98830068111 0.01169929188
1.00000000000 0.25706708431 0.74293285608
0.00000000000 0.97972816229 0.02027186751
0.00000000000 0.98710143566 0.01289856713
0.00000000000 0.94172376394 0.05827625841
0.00000000000 0.08776556700 0.91223448515
0.00000000000 0.97309982777 0.02690021880
1.00000000000 0.04144551978 0.95855444670
0.00000000000 0.98151201010 0.01848799922
0.00000000000 0.35774397850 0.64225602150
0.00000000000 0.29624080658 0.70375919342
0.00000000000 0.98493653536 0.01506345067
0.00000000000 0.98821347952 0.01178660430
0.00000000000 0.98662543297 0.01337452605
0.00000000000 0.03100895323 0.96899104118
0.00000000000 0.14242850244 0.85757148266
0.00000000000 0.96880900860 0.03119104169
0.00000000000 0.98211252689 0.01788754016
0.00000000000 0.58712774515 0.41287225485
0.00000000000 0.16490103304 0.83509904146
0.00000000000 0.94051915407 0.05948088318
0.00000000000 0.92438316345 0.07561679184
0.00000000000 0.34161394835 0.65838605165
0.00000000000 0.92314589024 0.07685419172
0.00000000000 0.98769044876 0.01230956614
0.00000000000 0.97485673428 0.02514323033
0.00000000000 0.97789657116 0.02210347541
0.00000000000 0.95799714327 0.04200284556
0.00000000000 0.05784808844 0.94215190411
0.00000000000 0.98610687256 0.01389307808
1.00000000000 0.03642489761 0.96357506514
0.00000000000 0.98359286785 0.01640714891
1.00000000000 0.49355971813 0.50644028187
0.00000000000 0.95921581984 0.04078422487
0.00000000000 0.46210041642 0.53789955378
0.00000000000 0.98535454273 0.01464544237
0.00000000000 0.98484992981 0.01515003853
0.00000000000 0.80563950539 0.19436046481
0.00000000000 0.03862132505 0.96137869358
1.00000000000 0.14134006202 0.85865998268
0.00000000000 0.50779795647 0.49220207334
0.00000000000 0.98827934265 0.01172070485
0.00000000000 0.25368967652 0.74631035328
0.00000000000 0.94466495514 0.05533507839
0.00000000000 0.98455876112 0.01544126123
0.00000000000 0.98846578598 0.01153424755
0.00000000000 0.95009744167 0.04990253597
1.00000000000 0.03235109895 0.96764886379
0.00000000000 0.98792529106 0.01207475644
0.00000000000 0.77745109797 0.22254887223
0.00000000000 0.97704905272 0.02295096032
0.00000000000 0.97059261799 0.02940740809
0.00000000000 0.59933269024 0.40066730976
0.00000000000 0.98786896467 0.01213097572
0.00000000000 0.50697201490 0.49302801490
0.00000000000 0.96468031406 0.03531973064
0.00000000000 0.98801362514 0.01198638789
0.00000000000 0.58885145187 0.41114851832
0.00000000000 0.02067717351 0.97932279110
0.00000000000 0.98518371582 0.01481627300
0.00000000000 0.97993439436 0.02006562799
0.00000000000 0.98558020592 0.01441983692
0.00000000000 0.98729717731 0.01270282548
0.00000000000 0.98484784365 0.01515210886
0.00000000000 0.96478515863 0.03521489352
0.00000000000 0.92716658115 0.07283346355
0.00000000000 0.98039674759 0.01960319094
0.00000000000 0.95664644241 0.04335352406
0.00000000000 0.02959093265 0.97040903568
1.00000000000 0.08620519191 0.91379481554
0.00000000000 0.34054780006 0.65945219994
0.00000000000 0.98727303743 0.01272699703
0.00000000000 0.98644638062 0.01355362963
1.00000000000 0.02344681881 0.97655314207
0.00000000000 0.19860978425 0.80139017105
0.00000000000 0.98769545555 0.01230457053
0.00000000000 0.98701441288 0.01298553403
0.00000000000 0.98432910442 0.01567089930
1.00000000000 0.01841668040 0.98158329725
0.00000000000 0.98299777508 0.01700224355
0.00000000000 0.38955551386 0.61044448614
0.00000000000 0.98812961578 0.01187038515
0.00000000000 0.98678648472 0.01321351714
0.00000000000 0.49718552828 0.50281447172
0.00000000000 0.97248953581 0.02751052193
0.00000000000 0.98863983154 0.01136022061
0.00000000000 0.97938263416 0.02061742544
0.00000000000 0.78912448883 0.21087555587
0.00000000000 0.03647519276 0.96352481842
0.00000000000 0.03561009839 0.96438992023
0.00000000000 0.72563117743 0.27436882257
0.00000000000 0.97888880968 0.02111122385
0.00000000000 0.72216659784 0.27783337235
0.00000000000 0.98859065771 0.01140935440
0.00000000000 0.98822498322 0.01177504566
0.00000000000 0.97880756855 0.02119240165
0.00000000000 0.95095467567 0.04904533923
0.00000000000 0.98618835211 0.01381163020
0.00000000000 0.24687702954 0.75312292576
0.00000000000 0.98825430870 0.01174568478
0.00000000000 0.76439511776 0.23560489714
0.00000000000 0.98543524742 0.01456482895
0.00000000000 0.95513379574 0.04486620054
0.00000000000 0.98714023829 0.01285982411
0.00000000000 0.98776638508 0.01223360840
0.00000000000 0.51107013226 0.48892989755
0.00000000000 0.22336122394 0.77663874626
0.00000000000 0.98772984743 0.01227009017
0.00000000000 0.53215193748 0.46784809232
0.00000000000 0.21587160230 0.78412842751
0.00000000000 0.19721835852 0.80278164148
0.00000000000 0.98395663500 0.01604342088
1.00000000000 0.95311284065 0.04688714817
0.00000000000 0.55516779423 0.44483220577
0.00000000000 0.05652315915 0.94347679615
0.00000000000 0.97567874193 0.02432127297
1.00000000000 0.02156693675 0.97843313217
0.00000000000 0.64982217550 0.35017776489
0.00000000000 0.98114770651 0.01885222271
1.00000000000 0.18399532139 0.81600469351
0.00000000000 0.97031980753 0.02968018129
0.00000000000 0.98700314760 0.01299687568
1.00000000000 0.21909776330 0.78090220690
0.00000000000 0.98720353842 0.01279651746
0.00000000000 0.40192109346 0.59807890654
0.00000000000 0.97752237320 0.02247767337
0.00000000000 0.02157958224 0.97842043638
0.00000000000 0.96968775988 0.03031225502
0.00000000000 0.98359352350 0.01640640944
1.00000000000 0.01972445659 0.98027557135
0.00000000000 0.98526430130 0.01473578438
1.00000000000 0.93812912703 0.06187092885
0.00000000000 0.97794729471 0.02205265686
0.00000000000 0.98772126436 0.01227878686
0.00000000000 0.85675281286 0.14324718714
0.00000000000 0.98829692602 0.01170301531
0.00000000000 0.64867711067 0.35132288933
0.00000000000 0.97803682089 0.02196317352
0.00000000000 0.24660734832 0.75339263678
1.00000000000 0.04697628319 0.95302367210
0.00000000000 0.02909195796 0.97090810537
0.00000000000 0.87386447191 0.12613545358
0.00000000000 0.62955063581 0.37044936419
0.00000000000 0.98578959703 0.01421038248
0.00000000000 0.88082528114 0.11917480081
0.00000000000 0.98544818163 0.01455175411
0.00000000000 0.98080348969 0.01919656619
0.00000000000 0.95206063986 0.04793941602
0.00000000000 0.03030566312 0.96969425678
0.00000000000 0.65622198582 0.34377795458
0.00000000000 0.98745846748 0.01254154835
0.00000000000 0.87801796198 0.12198208272
0.00000000000 0.73847323656 0.26152673364
0.00000000000 0.98643803596 0.01356190536
0.00000000000 0.83643138409 0.16356864572
1.00000000000 0.11151181906 0.88848817348
1.00000000000 0.90769642591 0.09230355173
0.00000000000 0.98344135284 0.01655869000
0.00000000000 0.84228450060 0.15771551430
0.00000000000 0.65842413902 0.34157586098
1.00000000000 0.23405338824 0.76594656706
0.00000000000 0.98240005970 0.01759993657
0.00000000000 0.97574609518 0.02425389923
1.00000000000 0.38555967808 0.61444032192
0.00000000000 0.98628181219 0.01371820923
0.00000000000 0.81886190176 0.18113811314
0.00000000000 0.93091428280 0.06908575445
0.00000000000 0.06434470415 0.93565529585
0.00000000000 0.98193627596 0.01806377433
1.00000000000 0.07939864695 0.92060136795
0.00000000000 0.05850847065 0.94149154425
0.00000000000 0.98650592566 0.01349407900
0.00000000000 0.98290330172 0.01709674112
0.00000000000 0.04748042300 0.95251953602
0.00000000000 0.76725327969 0.23274673522
0.00000000000 0.98770159483 0.01229842287
0.00000000000 0.94685649872 0.05314344540
0.00000000000 0.94679951668 0.05320043862
0.00000000000 0.27906206250 0.72093796730
0.00000000000 0.98444503546 0.01555491704
0.00000000000 0.95840561390 0.04159443080
0.00000000000 0.93797755241 0.06202250347
0.00000000000 0.24401538074 0.75598460436
0.00000000000 0.97901630402 0.02098376676
0.00000000000 0.98837155104 0.01162847131
0.00000000000 0.98563355207 0.01436647400
0.00000000000 0.03369212523 0.96630793810
0.00000000000 0.92937749624 0.07062251121
0.00000000000 0.76534634829 0.23465366662
0.00000000000 0.92296242714 0.07703754306
0.00000000000 0.98147076368 0.01852919534
1.00000000000 0.03924730793 0.96075266600
0.00000000000 0.66469311714 0.33530688286
0.00000000000 0.97873485088 0.02126514725
0.00000000000 0.97577059269 0.02422947250
0.00000000000 0.97989666462 0.02010339126
1.00000000000 0.01998764649 0.98001235723
0.00000000000 0.96542870998 0.03457126766
0.00000000000 0.84769856930 0.15230138600
0.00000000000 0.94501841068 0.05498162284
1.00000000000 0.98020535707 0.01979468763
0.00000000000 0.95297986269 0.04702010751
0.00000000000 0.98636347055 0.01363654062
0.00000000000 0.94703638554 0.05296360329
0.00000000000 0.98360127211 0.01639876328
0.00000000000 0.98820835352 0.01179165859
0.00000000000 0.98522907495 0.01477094647
0.00000000000 0.98820716143 0.01179282553
0.00000000000 0.83883935213 0.16116069257
0.00000000000 0.97388070822 0.02611934021
0.00000000000 0.98690724373 0.01309274416
1.00000000000 0.35290822387 0.64709180593
0.00000000000 0.98192262650 0.01807741448
0.00000000000 0.97187298536 0.02812695689
0.00000000000 0.22959752381 0.77040243149
0.00000000000 0.04929703474 0.95070290565
0.00000000000 0.06289000809 0.93711006641
1.00000000000 0.02246276475 0.97753727436
0.00000000000 0.98714905977 0.01285092905
0.00000000000 0.97851812840 0.02148186974
1.00000000000 0.03777618706 0.96222388744
0.00000000000 0.89486551285 0.10513447225
0.00000000000 0.33203819394 0.66796183586
0.00000000000 0.98744654655 0.01255352981
0.00000000000 0.67652183771 0.32347813249
0.00000000000 0.98641413450 0.01358587574
0.00000000000 0.03321624920 0.96678382158
0.00000000000 0.98800188303 0.01199817844
0.00000000000 0.98649954796 0.01350049954
0.00000000000 0.78782701492 0.21217298508
0.00000000000 0.93620288372 0.06379710138
0.00000000000 0.17643643916 0.82356351614
0.00000000000 0.98343235254 0.01656770892
0.00000000000 0.98609310389 0.01390695572
0.00000000000 0.98545050621 0.01454943698
1.00000000000 0.05639134720 0.94360864162
0.00000000000 0.17354665697 0.82645332813
0.00000000000 0.98687076569 0.01312915701
0.00000000000 0.98791712523 0.01208288688
1.00000000000 0.08393809199 0.91606193781
0.00000000000 0.98070734739 0.01929265261
0.00000000000 0.54925513268 0.45074483752
0.00000000000 0.17739325762 0.82260674238
0.00000000000 0.97655475140 0.02344522066
0.00000000000 0.89815944433 0.10184051841
0.00000000000 0.98836165667 0.01163828466
0.00000000000 0.98500555754 0.01499443781
0.00000000000 0.95136189461 0.04863804951
0.00000000000 0.98768138885 0.01231866051
0.00000000000 0.95004212856 0.04995787889
0.00000000000 0.98527824879 0.01472172327
0.00000000000 0.75873297453 0.24126707017
0.00000000000 0.98188018799 0.01811979525
0.00000000000 0.33323496580 0.66676509380
0.00000000000 0.10760806501 0.89239192009
0.00000000000 0.98593682051 0.01406317763
0.00000000000 0.07934147120 0.92065852880
0.00000000000 0.98775416613 0.01224580687
0.00000000000 0.46426925063 0.53573071957
0.00000000000 0.92320913076 0.07679083943
0.00000000000 0.98666208982 0.01333785430
0.00000000000 0.96940839291 0.03059164062
0.00000000000 0.98466914892 0.01533091068
0.00000000000 0.98742073774 0.01257929020
0.00000000000 0.98200273514 0.01799727231
0.00000000000 0.96871274710 0.03128724545
0.00000000000 0.25340867043 0.74659138918
0.00000000000 0.96297335625 0.03702662885
0.00000000000 0.04028577730 0.95971423388
0.00000000000 0.98556822538 0.01443172898
0.00000000000 0.86257201433 0.13742801547
0.00000000000 0.98532849550 0.01467149705
0.00000000000 0.92867559195 0.07132443786
0.00000000000 0.75908601284 0.24091401696
1.00000000000 0.02535573952 0.97464424372
0.00000000000 0.92323344946 0.07676655799
0.00000000000 0.06604241580 0.93395757675
0.00000000000 0.97781062126 0.02218940109
0.00000000000 0.43867033720 0.56132966280
0.00000000000 0.97555065155 0.02444929071
0.00000000000 0.14626692235 0.85373306274
1.00000000000 0.03528038040 0.96471965313
1.00000000000 0.03846776858 0.96153223515
1.00000000000 0.05460564047 0.94539433718
0.00000000000 0.14980205894 0.85019791126
0.00000000000 0.91155475378 0.08844520897
0.00000000000 0.98331427574 0.01668568142
0.00000000000 0.92205017805 0.07794976979
0.00000000000 0.98587173223 0.01412829105
0.00000000000 0.07972073555 0.92027926445
1.00000000000 0.98608297110 0.01391700283
0.00000000000 0.62082415819 0.37917581201
0.00000000000 0.98365545273 0.01634456776
0.00000000000 0.98796170950 0.01203827560
0.00000000000 0.57266563177 0.42733439803
0.00000000000 0.96067649126 0.03932346776
0.00000000000 0.02049263008 0.97950738668
0.00000000000 0.98057705164 0.01942298748
0.00000000000 0.98799639940 0.01200362854
1.00000000000 0.30533996224 0.69466006756
0.00000000000 0.98462533951 0.01537463535
1.00000000000 0.25586500764 0.74413502216
1.00000000000 0.10427986830 0.89572012424
0.00000000000 0.71473282576 0.28526717424
0.00000000000 0.98260992765 0.01739007235
0.00000000000 0.98744243383 0.01255753078
1.00000000000 0.42152652144 0.57847344875
0.00000000000 0.97775751352 0.02224248089
0.00000000000 0.63692432642 0.36307567358
0.00000000000 0.87430948019 0.12569053471
0.00000000000 0.04924028367 0.95075970888
0.00000000000 0.98292613029 0.01707391068
0.00000000000 0.35171157122 0.64828842878
0.00000000000 0.98711591959 0.01288402267
0.00000000000 0.51166450977 0.48833546042
0.00000000000 0.97994422913 0.02005577646
0.00000000000 0.83542060852 0.16457942128
0.00000000000 0.04930854589 0.95069152117
0.00000000000 0.27614057064 0.72385942936
0.00000000000 0.98617094755 0.01382898260
0.00000000000 0.98839581013 0.01160422992
0.00000000000 0.83440881968 0.16559119523
0.00000000000 0.98548209667 0.01451789960
1.00000000000 0.35068836808 0.64931166172
0.00000000000 0.98179203272 0.01820796356
1.00000000000 0.02039800212 0.97960197926
0.00000000000 0.81413310766 0.18586690724
0.00000000000 0.94076716900 0.05923286453
0.00000000000 0.27378150821 0.72621852160
0.00000000000 0.98361992836 0.01638006046
0.00000000000 0.98867166042 0.01132832933
0.00000000000 0.94226598740 0.05773393065
0.00000000000 0.93514001369 0.06486003101
0.00000000000 0.28325897455 0.71674102545
0.00000000000 0.98246896267 0.01753098890
0.00000000000 0.95155131817 0.04844874144
0.00000000000 0.98558610678 0.01441394258
0.00000000000 0.67037838697 0.32962167263
1.00000000000 0.02982527204 0.97017472982
0.00000000000 0.98341780901 0.01658221148
0.00000000000 0.97159463167 0.02840534598
0.00000000000 0.98717725277 0.01282276493
0.00000000000 0.98018783331 0.01981225237
0.00000000000 0.18252305686 0.81747692823
0.00000000000 0.97673231363 0.02326767333
0.00000000000 0.97802823782 0.02197178267
0.00000000000 0.11471334100 0.88528662920
0.00000000000 0.98820298910 0.01179698296
0.00000000000 0.94729757309 0.05270237476
1.00000000000 0.02756466158 0.97243529558
0.00000000000 0.37319433689 0.62680566311
0.00000000000 0.98496210575 0.01503794733
0.00000000000 0.95201003551 0.04798999801
0.00000000000 0.98697006702 0.01302991807
0.00000000000 0.96808648109 0.03191348165
1.00000000000 0.29531532526 0.70468461514
1.00000000000 0.25999432802 0.74000567198
1.00000000000 0.05463565141 0.94536429644
0.00000000000 0.81972599030 0.18027396500
0.00000000000 0.98598819971 0.01401183940
0.00000000000 0.98781430721 0.01218570396
0.00000000000 0.98788374662 0.01211628783
0.00000000000 0.96507537365 0.03492460027
0.00000000000 0.98019868135 0.01980134472
0.00000000000 0.95035105944 0.04964897037
0.00000000000 0.97378051281 0.02621942759
0.00000000000 0.98537945747 0.01462057419
0.00000000000 0.09606788307 0.90393215418
0.00000000000 0.19750642776 0.80249357224
0.00000000000 0.98382598162 0.01617399044
0.00000000000 0.95333248377 0.04666751623
0.00000000000 0.98071801662 0.01928197034
0.00000000000 0.91103076935 0.08896930516
1.00000000000 0.02083868906 0.97916132212
1.00000000000 0.10036342591 0.89963656664
0.00000000000 0.98271656036 0.01728341170
1.00000000000 0.08261176199 0.91738820076
0.00000000000 0.98508888483 0.01491116080
0.00000000000 0.85777306557 0.14222696424
0.00000000000 0.98142129183 0.01857867837
1.00000000000 0.49629426003 0.50370573997
1.00000000000 0.98753553629 0.01246444136
0.00000000000 0.97988849878 0.02011144534
0.00000000000 0.96775412560 0.03224582970
0.00000000000 0.06301876158 0.93698120117
0.00000000000 0.05682013929 0.94317990541
0.00000000000 0.98863786459 0.01136212144
0.00000000000 0.98804640770 0.01195353828
0.00000000000 0.98513609171 0.01486392133
1.00000000000 0.02763652429 0.97236347198
0.00000000000 0.98811441660 0.01188566443
0.00000000000 0.98862761259 0.01137236133
0.00000000000 0.88885807991 0.11114191264
1.00000000000 0.02453185059 0.97546821833
1.00000000000 0.40965774655 0.59034222364
0.00000000000 0.98710024357 0.01289969124
0.00000000000 0.98423278332 0.01576721296
0.00000000000 0.97355777025 0.02644223906
1.00000000000 0.03155012801 0.96844983101
1.00000000000 0.03159550205 0.96840447187
0.00000000000 0.68398493528 0.31601506472
0.00000000000 0.98754030466 0.01245965902
0.00000000000 0.22558835149 0.77441161871
0.00000000000 0.75027334690 0.24972665310
0.00000000000 0.97727805376 0.02272193320
0.00000000000 0.98635560274 0.01364437304
0.00000000000 0.98389822245 0.01610176452
0.00000000000 0.19359222054 0.80640780926
1.00000000000 0.98075139523 0.01924865320
1.00000000000 0.02305703051 0.97694301605
0.00000000000 0.98667508364 0.01332488284
0.00000000000 0.98560088873 0.01439912152
0.00000000000 0.98777031898 0.01222961117
0.00000000000 0.05487697572 0.94512307644
0.00000000000 0.98761987686 0.01238011569
1.00000000000 0.97897493839 0.02102507837
0.00000000000 0.07912561297 0.92087441683
0.00000000000 0.98693013191 0.01306984853
0.00000000000 0.98218381405 0.01781613380
0.00000000000 0.77170550823 0.22829446197
0.00000000000 0.98342275620 0.01657722518
0.00000000000 0.97900110483 0.02099888399
0.00000000000 0.93603616953 0.06396386772
1.00000000000 0.09367968142 0.90632033348
0.00000000000 0.90966099501 0.09033899009
0.00000000000 0.98826396465 0.01173597947
0.00000000000 0.53063112497 0.46936887503
0.00000000000 0.97423875332 0.02576120384
1.00000000000 0.03427858651 0.96572142839
0.00000000000 0.98446691036 0.01553307008
1.00000000000 0.03218875453 0.96781116724
1.00000000000 0.02066633664 0.97933369875
0.00000000000 0.11888887733 0.88111114502
0.00000000000 0.98405414820 0.01594580524
1.00000000000 0.89715135098 0.10284862667
0.00000000000 0.81096822023 0.18903176486
0.00000000000 0.98207873106 0.01792123728
1.00000000000 0.93353176117 0.06646827608
0.00000000000 0.28295800090 0.71704196930
0.00000000000 0.98744535446 0.01255464088
0.00000000000 0.98777288198 0.01222715806
0.00000000000 0.97775423527 0.02224581502
0.00000000000 0.71504956484 0.28495043516
0.00000000000 0.98715496063 0.01284503285
0.00000000000 0.98735702038 0.01264302712
0.00000000000 0.98663538694 0.01336454321
1.00000000000 0.04505030811 0.95494961739
0.00000000000 0.97052985430 0.02947007678
0.00000000000 0.97368323803 0.02631677501
0.00000000000 0.78256559372 0.21743439138
0.00000000000 0.98830354214 0.01169645879
0.00000000000 0.98412466049 0.01587535627
0.00000000000 0.38151457906 0.61848539114
0.00000000000 0.97965025902 0.02034972049
0.00000000000 0.94183140993 0.05816862732
0.00000000000 0.98010969162 0.01989032328
1.00000000000 0.25413167477 0.74586832523
0.00000000000 0.98704743385 0.01295259688
0.00000000000 0.98713904619 0.01286091283
1.00000000000 0.02361780219 0.97638219595
0.00000000000 0.90624302626 0.09375689179
1.00000000000 0.04160023853 0.95839983225
0.00000000000 0.98804271221 0.01195735764
0.00000000000 0.98257899284 0.01742098853
0.00000000000 0.98859089613 0.01140909549
0.00000000000 0.97116267681 0.02883735485
0.00000000000 0.89415556192 0.10584443808
0.00000000000 0.97576445341 0.02423557267
0.00000000000 0.04810175672 0.95189821720
0.00000000000 0.07085461915 0.92914539576
1.00000000000 0.65549594164 0.34450411797
1.00000000000 0.03351241723 0.96648758650
0.00000000000 0.98701941967 0.01298058406
0.00000000000 0.11721211672 0.88278788328
0.00000000000 0.92095845938 0.07904160768
0.00000000000 0.98837679625 0.01162324380
1.00000000000 0.17766666412 0.82233339548
0.00000000000 0.98851728439 0.01148277614
1.00000000000 0.07667279989 0.92332720757
0.00000000000 0.88604819775 0.11395179480
0.00000000000 0.48429903388 0.51570093632
0.00000000000 0.96437519789 0.03562482074
0.00000000000 0.83805543184 0.16194453835
0.00000000000 0.98744118214 0.01255887374
0.00000000000 0.03389856592 0.96610146761
0.00000000000 0.96953582764 0.03046413697
0.00000000000 0.97863996029 0.02136002854
0.00000000000 0.98718982935 0.01281018090
0.00000000000 0.90416854620 0.09583149850
0.00000000000 0.74833792448 0.25166204572
0.00000000000 0.98186421394 0.01813580655
0.00000000000 0.80097639561 0.19902358949
0.00000000000 0.27935332060 0.72064667940
0.00000000000 0.98835861683 0.01164133009
0.00000000000 0.69886982441 0.30113017559
0.00000000000 0.98483318090 0.01516685262
0.00000000000 0.96614545584 0.03385451064
0.00000000000 0.05379723012 0.94620275497
1.00000000000 0.02066436782 0.97933560610
0.00000000000 0.89671093225 0.10328906775
0.00000000000 0.98100990057 0.01899008267
1.00000000000 0.39360937476 0.60639065504
0.00000000000 0.96141141653 0.03858856484
0.00000000000 0.93367075920 0.06632923335
0.00000000000 0.97990155220 0.02009848878
0.00000000000 0.97915399075 0.02084606513
0.00000000000 0.45606812835 0.54393184185
0.00000000000 0.97398281097 0.02601722255
0.00000000000 0.98656749725 0.01343245618
0.00000000000 0.97476041317 0.02523958683
0.00000000000 0.96701151133 0.03298846260
0.00000000000 0.98416846991 0.01583159715
0.00000000000 0.97735297680 0.02264695987
0.00000000000 0.98234057426 0.01765937917
0.00000000000 0.98375838995 0.01624162868
0.00000000000 0.95346057415 0.04653943330
0.00000000000 0.97945761681 0.02054238692
0.00000000000 0.02429141849 0.97570860386
0.00000000000 0.98634457588 0.01365546789
0.00000000000 0.20915496349 0.79084503651
0.00000000000 0.98428010941 0.01571985148
1.00000000000 0.41579848528 0.58420151472
0.00000000000 0.20669665933 0.79330331087
1.00000000000 0.69757819176 0.30242177844
0.00000000000 0.80861061811 0.19138938189
0.00000000000 0.47548845410 0.52451151609
0.00000000000 0.97467029095 0.02532975003
0.00000000000 0.96081501245 0.03918492422
0.00000000000 0.74175983667 0.25824010372
0.00000000000 0.96648907661 0.03351088241
0.00000000000 0.98042446375 0.01957553439
0.00000000000 0.84842717648 0.15157285333
0.00000000000 0.55278676748 0.44721326232
1.00000000000 0.83040529490 0.16959469020
0.00000000000 0.97172313929 0.02827684581
0.00000000000 0.94268524647 0.05731480196
0.00000000000 0.97884494066 0.02115508355
0.00000000000 0.91614675522 0.08385322988
0.00000000000 0.98770576715 0.01229416020
0.00000000000 0.52364671230 0.47635328770
0.00000000000 0.43836018443 0.56163984537
0.00000000000 0.97610896826 0.02389110997
0.00000000000 0.98738306761 0.01261697430
1.00000000000 0.29052895308 0.70947110653
1.00000000000 0.92846632004 0.07153362781
0.00000000000 0.98835408688 0.01164588984
0.00000000000 0.98406696320 0.01593302377
0.00000000000 0.97521883249 0.02478114516
0.00000000000 0.98836028576 0.01163969375
1.00000000000 0.02222882025 0.97777116299
0.00000000000 0.98642504215 0.01357491221
0.00000000000 0.98462057114 0.01537945960
0.00000000000 0.98055386543 0.01944617182
0.00000000000 0.94140410423 0.05859589204
0.00000000000 0.98715424538 0.01284577139
0.00000000000 0.98437237740 0.01562756859
0.00000000000 0.94593125582 0.05406874046
0.00000000000 0.98778665066 0.01221338846
0.00000000000 0.34600338340 0.65399664640
0.00000000000 0.98622292280 0.01377713401
0.00000000000 0.98308783770 0.01691220328
0.00000000000 0.98797297478 0.01202700753
0.00000000000 0.10246216506 0.89753788710
0.00000000000 0.95632976294 0.04367028549
0.00000000000 0.98366516829 0.01633487083
1.00000000000 0.21492798626 0.78507208824
0.00000000000 0.77082103491 0.22917897999
0.00000000000 0.16088472307 0.83911532164
0.00000000000 0.91533100605 0.08466893435
0.00000000000 0.97283351421 0.02716649882
0.00000000000 0.91686552763 0.08313451707
0.00000000000 0.98450988531 0.01549013890
1.00000000000 0.91677105427 0.08322893083
0.00000000000 0.03936167434 0.96063834429
0.00000000000 0.13736872375 0.86263132095
0.00000000000 0.98759418726 0.01240587234
0.00000000000 0.98379826546 0.01620165631
1.00000000000 0.13557778299 0.86442220211
0.00000000000 0.98799997568 0.01200002246
0.00000000000 0.10621683300 0.89378315210
0.00000000000 0.17828647792 0.82171350718
1.00000000000 0.02950681932 0.97049313784
1.00000000000 0.03081304953 0.96918696165
0.00000000000 0.96180140972 0.03819851950
0.00000000000 0.98635989428 0.01364009921
0.00000000000 0.83792257309 0.16207744181
0.00000000000 0.98715448380 0.01284553483
0.00000000000 0.03327641264 0.96672362089
0.00000000000 0.18820829690 0.81179165840
0.00000000000 0.98485165834 0.01514833886
0.00000000000 0.84150481224 0.15849523246
0.00000000000 0.98799359798 0.01200640574
0.00000000000 0.04007032886 0.95992964506
0.00000000000 0.92465543747 0.07534460723
0.00000000000 0.98775416613 0.01224587765
0.00000000000 0.05366886780 0.94633108377
0.00000000000 0.94211798906 0.05788200721
1.00000000000 0.02564672194 0.97435331345
0.00000000000 0.03437038511 0.96562963724
0.00000000000 0.97195577621 0.02804426104
1.00000000000 0.02540403977 0.97459602356
0.00000000000 0.98602747917 0.01397249196
0.00000000000 0.89992588758 0.10007406771
0.00000000000 0.05214590207 0.94785404205
0.00000000000 0.02364910766 0.97635090351
0.00000000000 0.96880441904 0.03119561076
1.00000000000 0.06772668660 0.93227326870
0.00000000000 0.98719936609 0.01280068699
0.00000000000 0.98405474424 0.01594526693
0.00000000000 0.96757864952 0.03242137283
0.00000000000 0.96366065741 0.03633932397
0.00000000000 0.66567420959 0.33432576060
0.00000000000 0.96080833673 0.03919168562
0.00000000000 0.98272216320 0.01727786660
0.00000000000 0.54399579763 0.45600420237
0.00000000000 0.98776602745 0.01223400794
0.00000000000 0.24326616526 0.75673383474
0.00000000000 0.06126310304 0.93873685598
0.00000000000 0.98805004358 0.01194997877
1.00000000000 0.49239271879 0.50760728121
0.00000000000 0.84725880623 0.15274117887
0.00000000000 0.98121798038 0.01878208481
0.00000000000 0.98696076870 0.01303925551
0.00000000000 0.98152369261 0.01847629063
0.00000000000 0.95313709974 0.04686296359
1.00000000000 0.01993601210 0.98006403446
0.00000000000 0.98473441601 0.01526556443
0.00000000000 0.98757684231 0.01242318843
0.00000000000 0.97643136978 0.02356859669
0.00000000000 0.98828899860 0.01171098650
0.00000000000 0.13601550460 0.86398452520
0.00000000000 0.98256552219 0.01743447967
0.00000000000 0.30935600400 0.69064396620
0.00000000000 0.87077611685 0.12922388315
1.00000000000 0.02277786657 0.97722214460
0.00000000000 0.96872186661 0.03127816319
0.00000000000 0.98590415716 0.01409584936
0.00000000000 0.96370095015 0.03629906848
0.00000000000 0.83675241470 0.16324757040
1.00000000000 0.03497850522 0.96502155066
0.00000000000 0.62231397629 0.37768608332
1.00000000000 0.10358946770 0.89641052485
0.00000000000 0.79727351665 0.20272648335
0.00000000000 0.78289622068 0.21710373461
0.00000000000 0.82090878487 0.17909125984
0.00000000000 0.03554390743 0.96445614100
0.00000000000 0.96627932787 0.03372073546
0.00000000000 0.98632544279 0.01367458794
0.00000000000 0.98779523373 0.01220481563
0.00000000000 0.77434819937 0.22565175593
0.00000000000 0.03743039444 0.96256959438
0.00000000000 0.32065138221 0.67934858799
0.00000000000 0.49990975857 0.50009024143
0.00000000000 0.50328969955 0.49671027064
1.00000000000 0.36469340324 0.63530659676
1.00000000000 0.04244624078 0.95755380392
0.00000000000 0.47076618671 0.52923381329
0.00000000000 0.97622197866 0.02377808839
0.00000000000 0.59032166004 0.40967828035
0.00000000000 0.62046450377 0.37953546643
0.00000000000 0.03479086608 0.96520906687
0.00000000000 0.98564052582 0.01435952727
0.00000000000 0.02642059885 0.97357934713
0.00000000000 0.96682322025 0.03317677975
0.00000000000 0.98847639561 0.01152363513
1.00000000000 0.03404992819 0.96595007181
0.00000000000 0.97927904129 0.02072101831
0.00000000000 0.98780208826 0.01219794154
0.00000000000 0.93134164810 0.06865839660
0.00000000000 0.94105577469 0.05894421041
0.00000000000 0.41734096408 0.58265900612
0.00000000000 0.84235537052 0.15764458477
0.00000000000 0.98832136393 0.01167859137
0.00000000000 0.98262310028 0.01737695932
0.00000000000 0.98556965590 0.01443037950
0.00000000000 0.98035883904 0.01964119077
0.00000000000 0.98490124941 0.01509875711
0.00000000000 0.98599016666 0.01400981564
1.00000000000 0.05211142451 0.94788855314
0.00000000000 0.88606083393 0.11393918097
0.00000000000 0.94400078058 0.05599925295
0.00000000000 0.97851872444 0.02148125134
0.00000000000 0.98867255449 0.01132741570
0.00000000000 0.45804092288 0.54195910692
0.00000000000 0.97986674309 0.02013326995
1.00000000000 0.96840804815 0.03159199655
0.00000000000 0.90914332867 0.09085668623
1.00000000000 0.04022538662 0.95977467299
0.00000000000 0.92148846388 0.07851149142
0.00000000000 0.98668634892 0.01331362966
0.00000000000 0.98716855049 0.01283142343
0.00000000000 0.98826175928 0.01173820347
0.00000000000 0.47164890170 0.52835106850
0.00000000000 0.97930073738 0.02069929615
0.00000000000 0.98451691866 0.01548306551
0.00000000000 0.02710406482 0.97289586067
0.00000000000 0.97669810057 0.02330192737
1.00000000000 0.55997425318 0.44002571702
0.00000000000 0.95500248671 0.04499756917
0.00000000000 0.98758786917 0.01241207775
0.00000000000 0.98558795452 0.01441201102
0.00000000000 0.98775184155 0.01224816777
1.00000000000 0.09561690688 0.90438306332
0.00000000000 0.98210871220 0.01789128594
0.00000000000 0.98738944530 0.01261049416
0.00000000000 0.98347651958 0.01652348042
0.00000000000 0.98770058155 0.01229946595
0.00000000000 0.36666160822 0.63333845139
1.00000000000 0.98379528522 0.01620471850
1.00000000000 0.14654429257 0.85345572233
1.00000000000 0.09915024042 0.90084981918
0.00000000000 0.98758918047 0.01241083816
0.00000000000 0.98038756847 0.01961235702
1.00000000000 0.03515734524 0.96484261751
1.00000000000 0.95123040676 0.04876961559
0.00000000000 0.98587125540 0.01412868872
0.00000000000 0.98737144470 0.01262858137
0.00000000000 0.11021836847 0.88978159428
0.00000000000 0.95913356543 0.04086641967
0.00000000000 0.05493736267 0.94506257772
1.00000000000 0.01896687225 0.98103308678
0.00000000000 0.20203764737 0.79796236753
0.00000000000 0.98657816648 0.01342181955
0.00000000000 0.52831393480 0.47168603539
0.00000000000 0.22184611857 0.77815389633
0.00000000000 0.98678231239 0.01321765874
0.00000000000 0.98645997047 0.01354001276
0.00000000000 0.98764973879 0.01235029101
1.00000000000 0.02140109800 0.97859883308
0.00000000000 0.98722410202 0.01277589705
0.00000000000 0.95555377007 0.04444619268
0.00000000000 0.98119717836 0.01880281605
0.00000000000 0.98805081844 0.01194920857
0.00000000000 0.62395954132 0.37604042888
1.00000000000 0.02066220157 0.97933781147
0.00000000000 0.97244668007 0.02755330876
0.00000000000 0.98627835512 0.01372162905
0.00000000000 0.98748683929 0.01251318771
0.00000000000 0.13019067049 0.86980932951
0.00000000000 0.83547818661 0.16452178359
0.00000000000 0.31864044070 0.68135952950
0.00000000000 0.97985404730 0.02014596388
1.00000000000 0.96348440647 0.03651555255
0.00000000000 0.98774778843 0.01225225814
0.00000000000 0.21731948853 0.78268045187
0.00000000000 0.98630917072 0.01369080413
0.00000000000 0.04157412797 0.95842587948
1.00000000000 0.92060559988 0.07939434052
0.00000000000 0.07201690972 0.92798310518
1.00000000000 0.02720181085 0.97279816866
0.00000000000 0.98843097687 0.01156907715
0.00000000000 0.98493456841 0.01506539434
0.00000000000 0.98533141613 0.01466859505
0.00000000000 0.86245119572 0.13754878938
0.00000000000 0.97760194540 0.02239797451
0.00000000000 0.96146279573 0.03853726760
0.00000000000 0.97190171480 0.02809825540
0.00000000000 0.06244096160 0.93755906820
0.00000000000 0.98591935635 0.01408069674
0.00000000000 0.73734062910 0.26265934110
0.00000000000 0.98553907871 0.01446098369
0.00000000000 0.79938012362 0.20061984658
0.00000000000 0.98393517733 0.01606489718
0.00000000000 0.97476506233 0.02523493581
1.00000000000 0.25027409196 0.74972587824
0.00000000000 0.97132730484 0.02867270261
0.00000000000 0.98113256693 0.01886736788
0.00000000000 0.98365283012 0.01634716615
0.00000000000 0.69369721413 0.30630275607
0.00000000000 0.95503419638 0.04496574774
0.00000000000 0.19866609573 0.80133390427
0.00000000000 0.62879854441 0.37120139599
0.00000000000 0.98232114315 0.01767882146
0.00000000000 0.98090839386 0.01909160241
0.00000000000 0.98732835054 0.01267167088
0.00000000000 0.96390068531 0.03609927744
0.00000000000 0.93474185467 0.06525816768
0.00000000000 0.97674006224 0.02325993404
0.00000000000 0.97548043728 0.02451959811
0.00000000000 0.18158335984 0.81841665506
0.00000000000 0.91167968512 0.08832029998
0.00000000000 0.27525925636 0.72474074364
0.00000000000 0.96348464489 0.03651533276
0.00000000000 0.98710072041 0.01289927773
0.00000000000 0.98663270473 0.01336723007
0.00000000000 0.98793715239 0.01206289697
0.00000000000 0.92119783163 0.07880222797
0.00000000000 0.98339658976 0.01660345308
0.00000000000 0.97382396460 0.02617605589
1.00000000000 0.02678235993 0.97321766615
0.00000000000 0.17345046997 0.82654953003
0.00000000000 0.98680335283 0.01319662854
0.00000000000 0.98816061020 0.01183942333
0.00000000000 0.98636657000 0.01363339089
1.00000000000 0.07239146531 0.92760854959
0.00000000000 0.98814666271 0.01185341179
0.00000000000 0.34733861685 0.65266132355
0.00000000000 0.18926447630 0.81073558331
0.00000000000 0.98559707403 0.01440297347
0.00000000000 0.98325091600 0.01674907468
0.00000000000 0.69041758776 0.30958244205
0.00000000000 0.03264644742 0.96735358238
0.00000000000 0.90051329136 0.09948669374
0.00000000000 0.59754484892 0.40245512128
0.00000000000 0.98058021069 0.01941976696
0.00000000000 0.98516231775 0.01483766362
0.00000000000 0.98801267147 0.01198735926
1.00000000000 0.98837447166 0.01162546780
0.00000000000 0.30653980374 0.69346022606
0.00000000000 0.98780113459 0.01219880302
1.00000000000 0.03327929974 0.96672075987
0.00000000000 0.35746410489 0.64253586531
0.00000000000 0.95632475615 0.04367530346
0.00000000000 0.95708882809 0.04291115329
0.00000000000 0.98300445080 0.01699554920
0.00000000000 0.61093616486 0.38906386495
0.00000000000 0.98233908415 0.01766088419
0.00000000000 0.98857086897 0.01142917946
0.00000000000 0.94933855534 0.05066149682
0.00000000000 0.98548734188 0.01451265439
1.00000000000 0.01885066926 0.98114931583
0.00000000000 0.02555125952 0.97444874048
0.00000000000 0.98587286472 0.01412714180
0.00000000000 0.93544501066 0.06455492973
0.00000000000 0.98687452078 0.01312544476
0.00000000000 0.98630917072 0.01369086280
0.00000000000 0.98670864105 0.01329142321
1.00000000000 0.03271083161 0.96728914976
0.00000000000 0.91369956732 0.08630041778
0.00000000000 0.98770511150 0.01229493041
0.00000000000 0.98757523298 0.01242477354
0.00000000000 0.02843415178 0.97156578302
0.00000000000 0.98808240891 0.01191762649
0.00000000000 0.98392927647 0.01607079059
0.00000000000 0.92677646875 0.07322345674
1.00000000000 0.27852103114 0.72147893906
0.00000000000 0.98011243343 0.01988759637
0.00000000000 0.94741117954 0.05258874968
0.00000000000 0.85919678211 0.14080318809
0.00000000000 0.98690599203 0.01309398189
0.00000000000 0.94996899366 0.05003103986
0.00000000000 0.91782075167 0.08217930794
0.00000000000 0.98470550776 0.01529450808
0.00000000000 0.95250546932 0.04749454185
0.00000000000 0.84899067879 0.15100927651
0.00000000000 0.60948050022 0.39051946998
1.00000000000 0.97197431326 0.02802564017
1.00000000000 0.03647257760 0.96352738142
1.00000000000 0.06812451035 0.93187546730
0.00000000000 0.96163815260 0.03836182877
0.00000000000 0.76256066561 0.23743928969
0.00000000000 0.98764878511 0.01235123258
0.00000000000 0.47020131350 0.52979868650
0.00000000000 0.89216172695 0.10783825815
0.00000000000 0.94519960880 0.05480037257
0.00000000000 0.93226903677 0.06773093343
0.00000000000 0.05890911818 0.94109082222
0.00000000000 0.36901518703 0.63098478317
0.00000000000 0.93437069654 0.06562934071
0.00000000000 0.96698999405 0.03300999478
0.00000000000 0.98787164688 0.01212835964
0.00000000000 0.98728227615 0.01271763537
1.00000000000 0.07719678432 0.92280322313
0.00000000000 0.98813873529 0.01186126005
0.00000000000 0.98169487715 0.01830516756
0.00000000000 0.03419152647 0.96580851078
0.00000000000 0.10058101267 0.89941895008
0.00000000000 0.98474031687 0.01525961515
0.00000000000 0.89906466007 0.10093528777
0.00000000000 0.73666661978 0.26333332062
0.00000000000 0.64355975389 0.35644030571
0.00000000000 0.04310804978 0.95689201355
0.00000000000 0.98682600260 0.01317406446
0.00000000000 0.98734712601 0.01265282743
0.00000000000 0.87121319771 0.12878681719
0.00000000000 0.97726714611 0.02273281477
0.00000000000 0.98452478647 0.01547518559
0.00000000000 0.42016974092 0.57983028889
0.00000000000 0.97755092382 0.02244905196
1.00000000000 0.09373700619 0.90626305342
1.00000000000 0.02334991097 0.97665011883
0.00000000000 0.97887659073 0.02112348191
0.00000000000 0.03616345301 0.96383655071
0.00000000000 0.98066574335 0.01933420822
0.00000000000 0.06165646389 0.93834352493
0.00000000000 0.83564025164 0.16435980797
0.00000000000 0.98715263605 0.01284732390
0.00000000000 0.58477628231 0.41522368789
0.00000000000 0.08995026350 0.91004973650
0.00000000000 0.02374180220 0.97625821829
0.00000000000 0.08843068033 0.91156929731
0.00000000000 0.98769390583 0.01230602991
0.00000000000 0.11237349361 0.88762646914
0.00000000000 0.89381325245 0.10618672520
0.00000000000 0.98526912928 0.01473090425
0.00000000000 0.98722445965 0.01277549844
0.00000000000 0.98519921303 0.01480072364
0.00000000000 0.98579025269 0.01420976222
0.00000000000 0.95076453686 0.04923541471
0.00000000000 0.97630000114 0.02370003425
1.00000000000 0.04921909049 0.95078092813
1.00000000000 0.02016942948 0.97983062267
0.00000000000 0.03636750951 0.96363252401
0.00000000000 0.97695380449 0.02304620668
0.00000000000 0.96135360003 0.03864641860
0.00000000000 0.98039275408 0.01960720494
0.00000000000 0.97867900133 0.02132102661
1.00000000000 0.02416117862 0.97583878040
0.00000000000 0.96164065599 0.03835928068
0.00000000000 0.78684681654 0.21315318346
0.00000000000 0.98805236816 0.01194767747
0.00000000000 0.98819482327 0.01180513483
0.00000000000 0.79145950079 0.20854049921
0.00000000000 0.91566413641 0.08433584124
0.00000000000 0.39733931422 0.60266071558
0.00000000000 0.98670399189 0.01329596434
0.00000000000 0.98533153534 0.01466850564
0.00000000000 0.98699384928 0.01300609764
0.00000000000 0.04870479181 0.95129525661
0.00000000000 0.26461595297 0.73538404703
0.00000000000 0.50326353312 0.49673643708
0.00000000000 0.91785919666 0.08214077353
0.00000000000 0.97715204954 0.02284800634
1.00000000000 0.11553314328 0.88446682692
0.00000000000 0.97326463461 0.02673534490
1.00000000000 0.02204284258 0.97795712948
0.00000000000 0.98675715923 0.01324285846
0.00000000000 0.98370009661 0.01629983261
0.00000000000 0.98697263002 0.01302734204
0.00000000000 0.03379757330 0.96620243788
0.00000000000 0.98636531830 0.01363464165
0.00000000000 0.33946287632 0.66053712368
0.00000000000 0.98842930794 0.01157070789
0.00000000000 0.10784135014 0.89215862751
0.00000000000 0.94664406776 0.05335586146
0.00000000000 0.91819566488 0.08180432767
0.00000000000 0.96410310268 0.03589685261
0.00000000000 0.97771149874 0.02228850126
0.00000000000 0.98785185814 0.01214809623
0.00000000000 0.92052388191 0.07947612554
0.00000000000 0.98099076748 0.01900923625
0.00000000000 0.03451249003 0.96548748016
0.00000000000 0.86982101202 0.13017897308
0.00000000000 0.98627972603 0.01372022182
1.00000000000 0.02443849668 0.97556155920
0.00000000000 0.98724663258 0.01275340561
0.00000000000 0.98350626230 0.01649377495
0.00000000000 0.98712617159 0.01287383307
0.00000000000 0.07067765296 0.92932236195
1.00000000000 0.05616096035 0.94383901358
0.00000000000 0.97376698256 0.02623307519
1.00000000000 0.02204354666 0.97795641422
0.00000000000 0.95494025946 0.04505968094
0.00000000000 0.98773872852 0.01226123981
0.00000000000 0.96129244566 0.03870757669
1.00000000000 0.02032598667 0.97967404127
0.00000000000 0.98298209906 0.01701795124
0.00000000000 0.98097836971 0.01902164891
0.00000000000 0.86367529631 0.13632464409
0.00000000000 0.95821261406 0.04178738594
0.00000000000 0.03505547345 0.96494448185
0.00000000000 0.98147892952 0.01852111518
0.00000000000 0.98756843805 0.01243157499
0.00000000000 0.98808205128 0.01191799808
1.00000000000 0.70365005732 0.29634991288
0.00000000000 0.56238698959 0.43761301041
0.00000000000 0.98212951422 0.01787041686
0.00000000000 0.90283960104 0.09716034681
1.00000000000 0.76283365488 0.23716636002
0.00000000000 0.98114299774 0.01885695197
0.00000000000 0.90394806862 0.09605196118
0.00000000000 0.70383942127 0.29616060853
0.00000000000 0.97956860065 0.02043136582
0.00000000000 0.85709965229 0.14290042222
0.00000000000 0.98242110014 0.01757890917
0.00000000000 0.03460140154 0.96539860964
0.00000000000 0.97914975882 0.02085024305
0.00000000000 0.29026260972 0.70973742008
0.00000000000 0.97471547127 0.02528455667
0.00000000000 0.98691236973 0.01308765076
0.00000000000 0.95144414902 0.04855591059
0.00000000000 0.04181529954 0.95818465948
0.00000000000 0.57753425837 0.42246571183
0.00000000000 0.97643125057 0.02356871404
0.00000000000 0.98408395052 0.01591603644
0.00000000000 0.42798212171 0.57201790810
1.00000000000 0.02497513406 0.97502487898
0.00000000000 0.98260658979 0.01739343815
0.00000000000 0.02135073952 0.97864931822
0.00000000000 0.97439843416 0.02560158260
0.00000000000 0.98579061031 0.01420934033
0.00000000000 0.39803257585 0.60196739435
0.00000000000 0.98310005665 0.01689989306
0.00000000000 0.07752039284 0.92247962952
0.00000000000 0.98547238111 0.01452763192
0.00000000000 0.98776757717 0.01223246846
0.00000000000 0.03604574129 0.96395432949
0.00000000000 0.80656135082 0.19343867898
0.00000000000 0.56089687347 0.43910312653
0.00000000000 0.56321376562 0.43678626418
1.00000000000 0.02931108512 0.97068887949
0.00000000000 0.98671561480 0.01328440942
0.00000000000 0.96142357588 0.03857640922
0.00000000000 0.02376085334 0.97623914480
0.00000000000 0.91814792156 0.08185210079
0.00000000000 0.97989803553 0.02010197379
0.00000000000 0.98763847351 0.01236148551
0.00000000000 0.67565596104 0.32434403896
0.00000000000 0.98583638668 0.01416360028
0.00000000000 0.98665070534 0.01334923040
1.00000000000 0.02216171101 0.97783833742
0.00000000000 0.98710864782 0.01289136894
1.00000000000 0.90674364567 0.09325639904
0.00000000000 0.98649293184 0.01350702811
0.00000000000 0.78525978327 0.21474024653
0.00000000000 0.29347917438 0.70652085543
0.00000000000 0.97766178846 0.02233824879
0.00000000000 0.10717037320 0.89282965660
1.00000000000 0.98518347740 0.01481648721
0.00000000000 0.98690748215 0.01309251040
0.00000000000 0.93335020542 0.06664977968
0.00000000000 0.98263424635 0.01736580767
0.00000000000 0.95286238194 0.04713756219
0.00000000000 0.45750948787 0.54249054193
0.00000000000 0.04263389856 0.95736604929
0.00000000000 0.98399364948 0.01600627601
0.00000000000 0.96974819899 0.03025178052
0.00000000000 0.98320943117 0.01679058187
0.00000000000 0.92063319683 0.07936683297
0.00000000000 0.98671537638 0.01328460779
0.00000000000 0.97873401642 0.02126594260
0.00000000000 0.97916519642 0.02083476074
0.00000000000 0.17155730724 0.82844269276
1.00000000000 0.96829849482 0.03170154989
0.00000000000 0.09289900213 0.90710103512
0.00000000000 0.53928726912 0.46071276069
0.00000000000 0.03877387568 0.96122616529
1.00000000000 0.98836052418 0.01163949259
0.00000000000 0.97966319323 0.02033681609
0.00000000000 0.98765707016 0.01234288234
0.00000000000 0.93068701029 0.06931301951
0.00000000000 0.98665291071 0.01334710792
0.00000000000 0.98331475258 0.01668529212
0.00000000000 0.08691895008 0.91308104992
0.00000000000 0.02950889058 0.97049111128
0.00000000000 0.97588986158 0.02411015704
1.00000000000 0.01967530139 0.98032468557
0.00000000000 0.97381818295 0.02618186548
0.00000000000 0.98713624477 0.01286371704
0.00000000000 0.98341953754 0.01658050716
0.00000000000 0.66098988056 0.33901011944
0.00000000000 0.20539577305 0.79460418224
0.00000000000 0.98662263155 0.01337737776
0.00000000000 0.06976450235 0.93023550510
0.00000000000 0.14929063618 0.85070937872
0.00000000000 0.94907689095 0.05092314631
0.00000000000 0.27089875937 0.72910124063
0.00000000000 0.93248200417 0.06751800328
0.00000000000 0.93058276176 0.06941729039
0.00000000000 0.98129266500 0.01870729588
0.00000000000 0.93135136366 0.06864868850
0.00000000000 0.58830332756 0.41169670224
0.00000000000 0.02255746908 0.97744250298
1.00000000000 0.03218139708 0.96781855822
0.00000000000 0.84629505873 0.15370488167
0.00000000000 0.98716020584 0.01283984631
0.00000000000 0.42548656464 0.57451343536
0.00000000000 0.05117841065 0.94882166386
0.00000000000 0.98698461056 0.01301536709
0.00000000000 0.76776921749 0.23223079741
0.00000000000 0.96707892418 0.03292112425
1.00000000000 0.01987884194 0.98012113571
0.00000000000 0.93143218756 0.06856776774
0.00000000000 0.13647961617 0.86352032423
0.00000000000 0.98630225658 0.01369773410
1.00000000000 0.84328949451 0.15671049058
0.00000000000 0.98096185923 0.01903810725
0.00000000000 0.96921473742 0.03078524955
0.00000000000 0.94267570972 0.05732429028
0.00000000000 0.80995982885 0.19004023075
0.00000000000 0.98711061478 0.01288935356
0.00000000000 0.51820832491 0.48179167509
0.00000000000 0.97968834639 0.02031169645
0.00000000000 0.98460984230 0.01539012603
0.00000000000 0.05529462174 0.94470542669
0.00000000000 0.04739275202 0.95260727406
0.00000000000 0.22904913127 0.77095091343
0.00000000000 0.97952330112 0.02047669142
0.00000000000 0.41166648269 0.58833354712
0.00000000000 0.98566520214 0.01433476526
0.00000000000 0.29877606034 0.70122390985
0.00000000000 0.97834891081 0.02165105380
0.00000000000 0.97986906767 0.02013096400
0.00000000000 0.33822602034 0.66177397966
0.00000000000 0.03310991824 0.96689009666
0.00000000000 0.98585432768 0.01414566208
0.00000000000 0.98392522335 0.01607472636
0.00000000000 0.97720885277 0.02279117517
0.00000000000 0.96271526814 0.03728477657
0.00000000000 0.98677802086 0.01322197542
0.00000000000 0.88457965851 0.11542031914
0.00000000000 0.97768253088 0.02231743746
1.00000000000 0.04685580730 0.95314419270
0.00000000000 0.10363088548 0.89636915922
0.00000000000 0.96058750153 0.03941253945
0.00000000000 0.98023271561 0.01976726390
0.00000000000 0.03239209205 0.96760791540
0.00000000000 0.84732663631 0.15267339349
0.00000000000 0.98601168394 0.01398823410
1.00000000000 0.09035598487 0.90964400768
0.00000000000 0.69281935692 0.30718067288
0.00000000000 0.03928125650 0.96071875095
0.00000000000 0.96480077505 0.03519926593
0.00000000000 0.95327973366 0.04672024027
0.00000000000 0.85849350691 0.14150643349
0.00000000000 0.27144163847 0.72855836153
0.00000000000 0.98808050156 0.01191946305
0.00000000000 0.98336106539 0.01663891412
0.00000000000 0.98243319988 0.01756676659
0.00000000000 0.96774566174 0.03225434572
0.00000000000 0.97784507275 0.02215490118
0.00000000000 0.98858553171 0.01141444780
1.00000000000 0.01674614102 0.98325389624
0.00000000000 0.98660278320 0.01339726150
0.00000000000 0.98729580641 0.01270416472
0.00000000000 0.13094550371 0.86905455589
1.00000000000 0.03076024912 0.96923971176
1.00000000000 0.03005906008 0.96994096041
1.00000000000 0.13095426559 0.86904573441
0.00000000000 0.89947640896 0.10052355379
0.00000000000 0.98350369930 0.01649633609
0.00000000000 0.54384422302 0.45615580678
0.00000000000 0.85678523779 0.14321477711
0.00000000000 0.98632448912 0.01367544755
0.00000000000 0.96298944950 0.03701049089
0.00000000000 0.97877877951 0.02122122422
0.00000000000 0.41749355197 0.58250647783
0.00000000000 0.16011381149 0.83988612890
0.00000000000 0.98578876257 0.01421122439
0.00000000000 0.64235925674 0.35764077306
0.00000000000 0.98273772001 0.01726221107
0.00000000000 0.98663097620 0.01336906664
0.00000000000 0.98682749271 0.01317248121
0.00000000000 0.98049062490 0.01950940862
0.00000000000 0.98269641399 0.01730365492
0.00000000000 0.95386725664 0.04613281786
0.00000000000 0.98353737593 0.01646257564
0.00000000000 0.98858737946 0.01141264569
1.00000000000 0.44585782290 0.55414211750
1.00000000000 0.03551823273 0.96448177099
1.00000000000 0.58047413826 0.41952592134
1.00000000000 0.61538571119 0.38461428881
1.00000000000 0.02982768603 0.97017228603
1.00000000000 0.07789176702 0.92210829258
0.00000000000 0.97674405575 0.02325595170
0.00000000000 0.98674184084 0.01325821411
0.00000000000 0.12976828218 0.87023168802
1.00000000000 0.03830946982 0.96169048548
0.00000000000 0.22754928470 0.77245074511
0.00000000000 0.03386387229 0.96613609791
0.00000000000 0.13861404359 0.86138594151
0.00000000000 0.65707319975 0.34292683005
0.00000000000 0.97312408686 0.02687591501
0.00000000000 0.03989400342 0.96010595560
0.00000000000 0.81954216957 0.18045787513
0.00000000000 0.77575814724 0.22424185276
0.00000000000 0.97462409735 0.02537590265
0.00000000000 0.96866971254 0.03133034706
0.00000000000 0.98592489958 0.01407512370
1.00000000000 0.24066630006 0.75933367014
0.00000000000 0.97155666351 0.02844333276
0.00000000000 0.98695892096 0.01304111443
0.00000000000 0.98807924986 0.01192074362
0.00000000000 0.95122683048 0.04877314344
0.00000000000 0.98733949661 0.01266056858
0.00000000000 0.98010867834 0.01989130862
0.00000000000 0.98819118738 0.01180879585
0.00000000000 0.98238718510 0.01761287823
0.00000000000 0.91011762619 0.08988238871
0.00000000000 0.98330366611 0.01669631712
0.00000000000 0.98457008600 0.01542989630
0.00000000000 0.98760813475 0.01239189319
1.00000000000 0.02267068997 0.97732931376
0.00000000000 0.03336332366 0.96663665771
0.00000000000 0.03833127022 0.96166867018
0.00000000000 0.98753124475 0.01246875059
0.00000000000 0.97551947832 0.02448055334
0.00000000000 0.96437650919 0.03562348336
0.00000000000 0.96139669418 0.03860330209
0.00000000000 0.98424428701 0.01575562917
0.00000000000 0.98732936382 0.01267064549
0.00000000000 0.98715358973 0.01284637954
0.00000000000 0.93408006430 0.06591991335
0.00000000000 0.86684489250 0.13315512240
0.00000000000 0.97826945782 0.02173046395
0.00000000000 0.98842817545 0.01157183666
1.00000000000 0.83068478107 0.16931520402
0.00000000000 0.07635866851 0.92364126444
1.00000000000 0.06082265452 0.93917733431
0.00000000000 0.02768732980 0.97231262922
0.00000000000 0.87954050303 0.12045945972
0.00000000000 0.98650175333 0.01349826343
0.00000000000 0.79910796881 0.20089204609
1.00000000000 0.02388845012 0.97611153126
0.00000000000 0.98802757263 0.01197244227
1.00000000000 0.43957582116 0.56042414904
0.00000000000 0.10984684527 0.89015311003
0.00000000000 0.98613512516 0.01386485994
0.00000000000 0.25039294362 0.74960702658
0.00000000000 0.02064815722 0.97935187817
0.00000000000 0.98634791374 0.01365210302
0.00000000000 0.94607794285 0.05392211676
1.00000000000 0.03534752131 0.96465241909
0.00000000000 0.97047048807 0.02952948026
0.00000000000 0.98424410820 0.01575593464
0.00000000000 0.05453746766 0.94546252489
0.00000000000 0.98280704021 0.01719300821
0.00000000000 0.97644388676 0.02355613187
0.00000000000 0.91405457258 0.08594543487
0.00000000000 0.98822557926 0.01177445240
0.00000000000 0.98669993877 0.01330011338
1.00000000000 0.19593718648 0.80406278372
1.00000000000 0.02540518716 0.97459477186
0.00000000000 0.71220397949 0.28779596090
0.00000000000 0.92982625961 0.07017379254
1.00000000000 0.09611629695 0.90388363600
0.00000000000 0.97003704309 0.02996293455
0.00000000000 0.94820892811 0.05179106817
0.00000000000 0.98579597473 0.01420401130
0.00000000000 0.96889764071 0.03110242076
0.00000000000 0.98474031687 0.01525970176
0.00000000000 0.12820251286 0.87179750204
0.00000000000 0.98669809103 0.01330190804
0.00000000000 0.94959884882 0.05040113628
0.00000000000 0.96293199062 0.03706796095
1.00000000000 0.25431054831 0.74568945169
1.00000000000 0.06795906276 0.93204092979
0.00000000000 0.98453474045 0.01546524372
0.00000000000 0.98414480686 0.01585521735
1.00000000000 0.02655717544 0.97344285250
1.00000000000 0.04933509603 0.95066487789
0.00000000000 0.07216480374 0.92783516645
0.00000000000 0.98625248671 0.01374749839
0.00000000000 0.98156136274 0.01843861118
0.00000000000 0.98612147570 0.01387849264
0.00000000000 0.91190385818 0.08809614182
0.00000000000 0.98690199852 0.01309792604
0.00000000000 0.92110770941 0.07889229804
0.00000000000 0.98333215714 0.01666785404
0.00000000000 0.98497295380 0.01502698008
0.00000000000 0.98550516367 0.01449486520
0.00000000000 0.98222005367 0.01777993329
0.00000000000 0.98787784576 0.01212217472
0.00000000000 0.98273253441 0.01726748981
0.00000000000 0.97473585606 0.02526413277
0.00000000000 0.32916760445 0.67083239555
0.00000000000 0.03619351238 0.96380645037
0.00000000000 0.32432270050 0.67567729950
1.00000000000 0.97852599621 0.02147402242
0.00000000000 0.97819405794 0.02180587314
1.00000000000 0.05329703167 0.94670295715
0.00000000000 0.98360323906 0.01639681682
0.00000000000 0.97169029713 0.02830975875
0.00000000000 0.79293823242 0.20706173778
0.00000000000 0.97976845503 0.02023159154
1.00000000000 0.03742285818 0.96257716417
1.00000000000 0.02692964859 0.97307038307
0.00000000000 0.98360103369 0.01639897004
0.00000000000 0.89737069607 0.10262928158
0.00000000000 0.98397517204 0.01602481678
0.00000000000 0.98411035538 0.01588962041
0.00000000000 0.32678386569 0.67321610451
0.00000000000 0.09634955227 0.90365046263
0.00000000000 0.98612469435 0.01387522276
0.00000000000 0.97548657656 0.02451345138
0.00000000000 0.98435163498 0.01564838551
0.00000000000 0.98344445229 0.01655552723
0.00000000000 0.97484153509 0.02515841275
0.00000000000 0.98599743843 0.01400253270
0.00000000000 0.98727810383 0.01272185706
0.00000000000 0.84894210100 0.15105795860
0.00000000000 0.82523494959 0.17476511002
0.00000000000 0.96939945221 0.03060050122
1.00000000000 0.91827559471 0.08172444999
0.00000000000 0.22884172201 0.77115827799
0.00000000000 0.32086232305 0.67913764715
0.00000000000 0.97242581844 0.02757420763
0.00000000000 0.98703837395 0.01296164654
0.00000000000 0.98578798771 0.01421201974
0.00000000000 0.73690223694 0.26309770346
0.00000000000 0.97873711586 0.02126294002
0.00000000000 0.72063511610 0.27936491370
0.00000000000 0.98732507229 0.01267489232
0.00000000000 0.95901215076 0.04098778591
0.00000000000 0.95393002033 0.04606995359
1.00000000000 0.16004656255 0.83995342255
0.00000000000 0.98430550098 0.01569444686
0.00000000000 0.37355023623 0.62644976377
0.00000000000 0.98796564341 0.01203434076
0.00000000000 0.20094051957 0.79905951023
0.00000000000 0.06648135185 0.93351864815
0.00000000000 0.98593974113 0.01406028867
0.00000000000 0.97245603800 0.02754391730
0.00000000000 0.98603463173 0.01396535989
0.00000000000 0.96854466200 0.03145536408
0.00000000000 0.97834455967 0.02165541798
0.00000000000 0.98635905981 0.01364097930
0.00000000000 0.98829984665 0.01170016360
0.00000000000 0.36596861482 0.63403135538
0.00000000000 0.89407873154 0.10592127591
0.00000000000 0.25370252132 0.74629747868
0.00000000000 0.93688207865 0.06311795115
0.00000000000 0.98626929522 0.01373075787
0.00000000000 0.98787319660 0.01212680526
0.00000000000 0.98583930731 0.01416067127
0.00000000000 0.98790818453 0.01209176332
0.00000000000 0.82874947786 0.17125055194
1.00000000000 0.06335089356 0.93664914370
0.00000000000 0.97940045595 0.02059952542
0.00000000000 0.97821164131 0.02178831957
0.00000000000 0.10531225055 0.89468771219
0.00000000000 0.62338984013 0.37661018968
0.00000000000 0.98579341173 0.01420661621
0.00000000000 0.74473667145 0.25526335835
0.00000000000 0.35561153293 0.64438849688
0.00000000000 0.98254376650 0.01745617762
0.00000000000 0.11550479382 0.88449519873
1.00000000000 0.02821828425 0.97178167105
0.00000000000 0.98394286633 0.01605715789
0.00000000000 0.97256845236 0.02743154950
0.00000000000 0.98831498623 0.01168502774
0.00000000000 0.84079295397 0.15920707583
0.00000000000 0.94368135929 0.05631863698
0.00000000000 0.97370171547 0.02629821934
0.00000000000 0.90148758888 0.09851244837
0.00000000000 0.94733309746 0.05266686901
0.00000000000 0.98638284206 0.01361711882
0.00000000000 0.94606232643 0.05393761024
0.00000000000 0.32993367314 0.67006629705
0.00000000000 0.02883304097 0.97116696835
0.00000000000 0.97603225708 0.02396775782
0.00000000000 0.61303967237 0.38696035743
0.00000000000 0.59390413761 0.40609586239
0.00000000000 0.97252917290 0.02747085132
0.00000000000 0.98680520058 0.01319480315
0.00000000000 0.98214370012 0.01785632782
0.00000000000 0.35280659795 0.64719343185
0.00000000000 0.98835116625 0.01164877694
0.00000000000 0.23721557856 0.76278442144
0.00000000000 0.98555433750 0.01444565319
1.00000000000 0.70007091761 0.29992908239
0.00000000000 0.86197268963 0.13802734017
0.00000000000 0.98600578308 0.01399424113
0.00000000000 0.98711526394 0.01288475096
0.00000000000 0.98207741976 0.01792259887
0.00000000000 0.35385271907 0.64614725113
0.00000000000 0.92471015453 0.07528987527
0.00000000000 0.94743150473 0.05256852508
0.00000000000 0.98163580894 0.01836417057
0.00000000000 0.98555159569 0.01444842946
0.00000000000 0.97972357273 0.02027634904
0.00000000000 0.04205999523 0.95794004202
0.00000000000 0.70677202940 0.29322794080
0.00000000000 0.59573149681 0.40426850319
0.00000000000 0.98593068123 0.01406928804
0.00000000000 0.98649674654 0.01350326836
0.00000000000 0.06086178496 0.93913823366
0.00000000000 0.95712554455 0.04287448153
0.00000000000 0.54652011395 0.45347985625
1.00000000000 0.02861137316 0.97138863802
0.00000000000 0.98817038536 0.01182960253
1.00000000000 0.05535368621 0.94464635849
0.00000000000 0.98760610819 0.01239390112
1.00000000000 0.02571423724 0.97428572178
1.00000000000 0.05580928549 0.94419074059
0.00000000000 0.62839007378 0.37160995603
0.00000000000 0.98228526115 0.01771478914
0.00000000000 0.90503787994 0.09496209770
0.00000000000 0.98763728142 0.01236272696
1.00000000000 0.07221935689 0.92778068781
0.00000000000 0.98395961523 0.01604040153
0.00000000000 0.71691930294 0.28308075666
1.00000000000 0.09830179811 0.90169817209
0.00000000000 0.98417216539 0.01582789607
0.00000000000 0.03615932912 0.96384066343
0.00000000000 0.97246551514 0.02753446251
0.00000000000 0.85487985611 0.14512012899
1.00000000000 0.66105997562 0.33893996477
0.00000000000 0.98787933588 0.01212065481
0.00000000000 0.98763507605 0.01236488018
0.00000000000 0.98835420609 0.01164582931
1.00000000000 0.46528571844 0.53471434116
1.00000000000 0.13088184595 0.86911821365
0.00000000000 0.69037199020 0.30962800980
0.00000000000 0.90150892735 0.09849105775
0.00000000000 0.98724478483 0.01275524776
0.00000000000 0.96630102396 0.03369893879
0.00000000000 0.02421187609 0.97578817606
0.00000000000 0.39258563519 0.60741430521
0.00000000000 0.98669809103 0.01330190804
0.00000000000 0.96952271461 0.03047725745
0.00000000000 0.31552708149 0.68447285891
0.00000000000 0.97355198860 0.02644797787
0.00000000000 0.98754674196 0.01245332975
0.00000000000 0.88938987255 0.11061011255
0.00000000000 0.94654732943 0.05345264450
0.00000000000 0.53473615646 0.46526384354
0.00000000000 0.96711134911 0.03288859501
0.00000000000 0.22742438316 0.77257567644
0.00000000000 0.05410930887 0.94589072466
0.00000000000 0.61211639643 0.38788363338
0.00000000000 0.98779630661 0.01220377535
0.00000000000 0.97812527418 0.02187471651
0.00000000000 0.55473744869 0.44526258111
0.00000000000 0.98776346445 0.01223646663
0.00000000000 0.89892268181 0.10107733309
0.00000000000 0.95501661301 0.04498334974
0.00000000000 0.96465420723 0.03534579277
0.00000000000 0.98660266399 0.01339736767
0.00000000000 0.23316405714 0.76683598757
0.00000000000 0.98802012205 0.01197990682
0.00000000000 0.98406499624 0.01593496650
0.00000000000 0.98447108269 0.01552892383
0.00000000000 0.94988918304 0.05011079088
0.00000000000 0.98462003469 0.01537995599
0.00000000000 0.02227022313 0.97772979736
1.00000000000 0.02301486209 0.97698509693
0.00000000000 0.96644854546 0.03355150297
0.00000000000 0.51330178976 0.48669818044
0.00000000000 0.12791371346 0.87208622694
0.00000000000 0.92289823294 0.07710169256
1.00000000000 0.03373580799 0.96626418829
0.00000000000 0.97972542048 0.02027460560
0.00000000000 0.96373534203 0.03626462445
0.00000000000 0.98472851515 0.01527140662
0.00000000000 0.97614663839 0.02385336719
0.00000000000 0.40624412894 0.59375590086
0.00000000000 0.97613781691 0.02386218309
0.00000000000 0.98384153843 0.01615838334
0.00000000000 0.98774170876 0.01225833129
0.00000000000 0.98252654076 0.01747344993
0.00000000000 0.96841472387 0.03158530593
0.00000000000 0.98707377911 0.01292624045
0.00000000000 0.98525488377 0.01474506315
0.00000000000 0.98316538334 0.01683461107
0.00000000000 0.19987010956 0.80012989044
0.00000000000 0.94009989500 0.05990010500
0.00000000000 0.98658192158 0.01341810077
0.00000000000 0.79661142826 0.20338864625
1.00000000000 0.48835891485 0.51164108515
0.00000000000 0.98673313856 0.01326691918
0.00000000000 0.06779828668 0.93220168352
0.00000000000 0.97393995523 0.02606007457
0.00000000000 0.97968310118 0.02031687088
0.00000000000 0.98448443413 0.01551553793
0.00000000000 0.93481445312 0.06518556178
0.00000000000 0.97173082829 0.02826917544
0.00000000000 0.98264795542 0.01735207811
0.00000000000 0.15682667494 0.84317326546
0.00000000000 0.98666137457 0.01333855838
0.00000000000 0.92027181387 0.07972820103
1.00000000000 0.02073382773 0.97926622629
0.00000000000 0.98511695862 0.01488298737
0.00000000000 0.98681378365 0.01318619959
0.00000000000 0.06087202579 0.93912792206
0.00000000000 0.76702582836 0.23297414184
1.00000000000 0.02624367177 0.97375631332
0.00000000000 0.98229640722 0.01770353876
0.00000000000 0.91792577505 0.08207418025
0.00000000000 0.98575240374 0.01424759161
0.00000000000 0.98850351572 0.01149652060
0.00000000000 0.98447245359 0.01552753057
0.00000000000 0.35159912705 0.64840090275
0.00000000000 0.96838915348 0.03161086142
0.00000000000 0.98599016666 0.01400988270
0.00000000000 0.98794299364 0.01205706224
0.00000000000 0.98525756598 0.01474240329
0.00000000000 0.98802280426 0.01197725534
0.00000000000 0.98402714729 0.01597283036
0.00000000000 0.21372300386 0.78627693653
1.00000000000 0.11144404113 0.88855594397
0.00000000000 0.98274129629 0.01725868694
0.00000000000 0.98722851276 0.01277153194
1.00000000000 0.02586138994 0.97413867712
0.00000000000 0.84650164843 0.15349832177
0.00000000000 0.98156517744 0.01843485050
0.00000000000 0.98643559217 0.01356437616
0.00000000000 0.98772138357 0.01227860618
0.00000000000 0.07418180257 0.92581820488
0.00000000000 0.98755472898 0.01244531106
0.00000000000 0.02628738061 0.97371262312
0.00000000000 0.98744618893 0.01255377755
0.00000000000 0.98774522543 0.01225473359
0.00000000000 0.98161476851 0.01838524267
0.00000000000 0.98696333170 0.01303661615
0.00000000000 0.98845195770 0.01154805813
0.00000000000 0.98494637012 0.01505359728
0.00000000000 0.98717695475 0.01282306015
0.00000000000 0.36414963007 0.63585042953
0.00000000000 0.95542436838 0.04457566142
0.00000000000 0.95180469751 0.04819526896
0.00000000000 0.98502546549 0.01497457549
0.00000000000 0.92408895493 0.07591105253
0.00000000000 0.42224588990 0.57775408030
0.00000000000 0.70140123367 0.29859879613
0.00000000000 0.98499310017 0.01500695199
1.00000000000 0.11576684564 0.88423317671
0.00000000000 0.86628550291 0.13371452689
1.00000000000 0.02678390592 0.97321611643
0.00000000000 0.93487793207 0.06512214988
0.00000000000 0.98425459862 0.01574540697
0.00000000000 0.03887895495 0.96112108231
1.00000000000 0.43619689345 0.56380313635
0.00000000000 0.98635548353 0.01364454068
0.00000000000 0.54090857506 0.45909139514
0.00000000000 0.02152762748 0.97847235203
1.00000000000 0.02041284181 0.97958713770
0.00000000000 0.98675608635 0.01324384194
0.00000000000 0.98811638355 0.01188363135
0.00000000000 0.98517042398 0.01482951641
0.00000000000 0.98806619644 0.01193381380
0.00000000000 0.98805469275 0.01194534171
0.00000000000 0.98863947392 0.01136054285
0.00000000000 0.75685483217 0.24314519763
0.00000000000 0.19987739623 0.80012261868
0.00000000000 0.98490774632 0.01509229187
0.00000000000 0.95807272196 0.04192730784
0.00000000000 0.88741248846 0.11258757114
0.00000000000 0.98817294836 0.01182702184
0.00000000000 0.94832974672 0.05167024955
1.00000000000 0.05001353472 0.94998639822
0.00000000000 0.11752790958 0.88247203827
0.00000000000 0.98364025354 0.01635974459
0.00000000000 0.98530071974 0.01469933148
0.00000000000 0.97866606712 0.02133390307
0.00000000000 0.98782277107 0.01217717212
0.00000000000 0.98669064045 0.01330933254
0.00000000000 0.98723840714 0.01276161987
0.00000000000 0.98428636789 0.01571360230
0.00000000000 0.97349482775 0.02650518715
0.00000000000 0.98057979345 0.01942023449
0.00000000000 0.91592198610 0.08407796174
0.00000000000 0.95213842392 0.04786158353
0.00000000000 0.98357772827 0.01642226055
0.00000000000 0.97677397728 0.02322605997
1.00000000000 0.88326668739 0.11673335731
0.00000000000 0.98727732897 0.01272270828
0.00000000000 0.98682111502 0.01317893807
0.00000000000 0.97096639872 0.02903353795
0.00000000000 0.05716159567 0.94283843040
0.00000000000 0.59351229668 0.40648770332
0.00000000000 0.93971014023 0.06028994173
0.00000000000 0.98336315155 0.01663680747
0.00000000000 0.05394033715 0.94605964422
0.00000000000 0.98556661606 0.01443338394
