1.00000000000 0.06381303817 0.93618696928
0.00000000000 0.99518674612 0.00481330091
0.00000000000 0.98004937172 0.01995063946
0.00000000000 0.96082216501 0.03917782754
0.00000000000 0.98824405670 0.01175589580
0.00000000000 0.99685138464 0.00314867520
0.00000000000 0.99568104744 0.00431892462
0.00000000000 0.99717015028 0.00282982620
0.00000000000 0.96132439375 0.03867559135
0.00000000000 0.99449026585 0.00550975744
1.00000000000 0.99260437489 0.00739562418
0.00000000000 0.98091173172 0.01908828318
1.00000000000 0.00337058096 0.99662941694
0.00000000000 0.99328494072 0.00671507418
0.00000000000 0.99066072702 0.00933927856
0.00000000000 0.99213635921 0.00786366034
0.00000000000 0.99444818497 0.00555178011
0.00000000000 0.95416569710 0.04583425075
0.00000000000 0.98645359278 0.01354638766
0.00000000000 0.02812164649 0.97187840939
0.00000000000 0.70630460978 0.29369539022
0.00000000000 0.94393223524 0.05606773123
1.00000000000 0.08466385305 0.91533613205
0.00000000000 0.82345622778 0.17654372752
0.00000000000 0.90293419361 0.09706581384
0.00000000000 0.94108134508 0.05891866237
0.00000000000 0.10649985820 0.89350008965
0.00000000000 0.98178642988 0.01821353473
0.00000000000 0.99676990509 0.00323013170
0.00000000000 0.99685424566 0.00314578321
0.00000000000 0.99717390537 0.00282601407
0.00000000000 0.92517459393 0.07482541353
0.00000000000 0.99380725622 0.00619269675
0.00000000000 0.96611648798 0.03388350457
0.00000000000 0.19709263742 0.80290734768
0.00000000000 0.98447221518 0.01552779227
0.00000000000 0.98151189089 0.01848815009
0.00000000000 0.98746800423 0.01253195573
0.00000000000 0.99139457941 0.00860538334
0.00000000000 0.99726831913 0.00273166946
1.00000000000 0.71957182884 0.28042817116
1.00000000000 0.01442492008 0.98557507992
0.00000000000 0.99267160892 0.00732836081
0.00000000000 0.00815455057 0.99184542894
0.00000000000 0.31524112821 0.68475890160
0.00000000000 0.92349189520 0.07650809735
0.00000000000 0.95987588167 0.04012414813
1.00000000000 0.75662189722 0.24337807298
1.00000000000 0.00461126585 0.99538874626
0.00000000000 0.99245423079 0.00754580181
0.00000000000 0.99246841669 0.00753160240
0.00000000000 0.99490499496 0.00509500364
0.00000000000 0.17794457078 0.82205545902
0.00000000000 0.80885010958 0.19114986062
0.00000000000 0.99151927233 0.00848074351
0.00000000000 0.99656891823 0.00343104149
0.00000000000 0.99553853273 0.00446149148
0.00000000000 0.97530305386 0.02469690703
0.00000000000 0.99286824465 0.00713177351
0.00000000000 0.98966282606 0.01033717301
1.00000000000 0.37404605746 0.62595397234
0.00000000000 0.99705410004 0.00294594397
0.00000000000 0.99296689034 0.00703316182
0.00000000000 0.01736710221 0.98263287544
0.00000000000 0.99678623676 0.00321372715
0.00000000000 0.00454622321 0.99545371532
0.00000000000 0.00762271415 0.99237728119
1.00000000000 0.90404099226 0.09595905989
1.00000000000 0.00468641939 0.99531352520
0.00000000000 0.91396296024 0.08603698760
1.00000000000 0.98244595528 0.01755399071
1.00000000000 0.84655523300 0.15344481170
0.00000000000 0.98472863436 0.01527132839
0.00000000000 0.99299275875 0.00700724171
0.00000000000 0.99406462908 0.00593543984
0.00000000000 0.99657601118 0.00342397625
1.00000000000 0.90607458353 0.09392537177
1.00000000000 0.98501509428 0.01498495322
0.00000000000 0.59971535206 0.40028464794
0.00000000000 0.68806302547 0.31193694472
1.00000000000 0.96773034334 0.03226963058
0.00000000000 0.50980162621 0.49019837379
1.00000000000 0.97520303726 0.02479692735
0.00000000000 0.38345864415 0.61654132605
1.00000000000 0.00663397647 0.99336606264
0.00000000000 0.99729174376 0.00270819990
0.00000000000 0.99067407846 0.00932596531
0.00000000000 0.73910450935 0.26089546084
0.00000000000 0.97744750977 0.02255246602
0.00000000000 0.00806618016 0.99193382263
0.00000000000 0.94926691055 0.05073309690
1.00000000000 0.01081165392 0.98918837309
0.00000000000 0.96209275723 0.03790727630
0.00000000000 0.07884131372 0.92115867138
0.00000000000 0.83394718170 0.16605280340
0.00000000000 0.98282605410 0.01717390679
1.00000000000 0.00437404355 0.99562597275
0.00000000000 0.99530220032 0.00469783042
0.00000000000 0.31642752886 0.68357247114
0.00000000000 0.98256713152 0.01743285172
0.00000000000 0.77529859543 0.22470144928
0.00000000000 0.95835143328 0.04164863750
0.00000000000 0.92436379194 0.07563617826
0.00000000000 0.99508553743 0.00491439598
0.00000000000 0.99628794193 0.00371209951
0.00000000000 0.91490882635 0.08509113640
0.00000000000 0.99584889412 0.00415111752
0.00000000000 0.96732836962 0.03267161921
0.00000000000 0.00813282188 0.99186724424
0.00000000000 0.99179863930 0.00820138119
0.00000000000 0.98253321648 0.01746678911
1.00000000000 0.97859007120 0.02140997164
0.00000000000 0.99642950296 0.00357052754
0.00000000000 0.92681783438 0.07318215072
0.00000000000 0.99566513300 0.00433488796
0.00000000000 0.98835551739 0.01164451800
0.00000000000 0.99171149731 0.00828851666
0.00000000000 0.98141574860 0.01858419180
1.00000000000 0.10094731301 0.89905261993
0.00000000000 0.09566105157 0.90433889627
1.00000000000 0.18387526274 0.81612473726
0.00000000000 0.91308271885 0.08691728115
0.00000000000 0.99058479071 0.00941520371
0.00000000000 0.82528769970 0.17471231520
0.00000000000 0.00385712762 0.99614292383
0.00000000000 0.37885743380 0.62114262581
0.00000000000 0.99158090353 0.00841908995
0.00000000000 0.99529820681 0.00470183650
0.00000000000 0.99400663376 0.00599339185
1.00000000000 0.04614110664 0.95385891199
0.00000000000 0.32651305199 0.67348688841
1.00000000000 0.00894253142 0.99105751514
0.00000000000 0.98231238127 0.01768761873
0.00000000000 0.86562991142 0.13437016308
0.00000000000 0.96745467186 0.03254536912
1.00000000000 0.98927313089 0.01072687097
0.00000000000 0.92714542150 0.07285453379
0.00000000000 0.77531123161 0.22468876839
1.00000000000 0.87992507219 0.12007490546
0.00000000000 0.66447746754 0.33552250266
0.00000000000 0.97616934776 0.02383058332
0.00000000000 0.06196242571 0.93803751469
1.00000000000 0.84819924831 0.15180073678
0.00000000000 0.98911803961 0.01088197902
0.00000000000 0.99703681469 0.00296319649
0.00000000000 0.99598479271 0.00401518540
0.00000000000 0.98518699408 0.01481299475
0.00000000000 0.98003971577 0.01996023953
0.00000000000 0.98963493109 0.01036509499
0.00000000000 0.73657017946 0.26342976093
0.00000000000 0.99036437273 0.00963567756
0.00000000000 0.99605149031 0.00394852227
0.00000000000 0.99734479189 0.00265522418
0.00000000000 0.16771590710 0.83228409290
0.00000000000 0.99648189545 0.00351802795
0.00000000000 0.82703149319 0.17296846211
0.00000000000 0.88773804903 0.11226188391
0.00000000000 0.99185866117 0.00814136490
0.00000000000 0.99197024107 0.00802973378
1.00000000000 0.00324559747 0.99675434828
0.00000000000 0.00290472177 0.99709522724
0.00000000000 0.97690272331 0.02309729904
0.00000000000 0.99122673273 0.00877333060
0.00000000000 0.99113863707 0.00886132754
0.00000000000 0.90993559361 0.09006442130
1.00000000000 0.99672937393 0.00327067962
0.00000000000 0.09117808938 0.90882194042
0.00000000000 0.99440443516 0.00559551781
0.00000000000 0.94472670555 0.05527334288
0.00000000000 0.97470223904 0.02529772557
1.00000000000 0.00767129939 0.99232870340
0.00000000000 0.97866606712 0.02133394405
0.00000000000 0.99396955967 0.00603040354
1.00000000000 0.82668107748 0.17331895232
0.00000000000 0.14368663728 0.85631334782
0.00000000000 0.88631290197 0.11368710548
0.00000000000 0.97788506746 0.02211489715
0.00000000000 0.02857613936 0.97142380476
0.00000000000 0.99233013391 0.00766993174
0.00000000000 0.98273301125 0.01726703718
0.00000000000 0.98909491301 0.01090506278
0.00000000000 0.99491429329 0.00508572580
0.00000000000 0.70354968309 0.29645031691
0.00000000000 0.49046304822 0.50953698158
0.00000000000 0.96773326397 0.03226677328
0.00000000000 0.97133922577 0.02866076492
0.00000000000 0.99752444029 0.00247554854
1.00000000000 0.00307325809 0.99692672491
0.00000000000 0.99652844667 0.00347160432
0.00000000000 0.98688727617 0.01311272755
0.00000000000 0.91210639477 0.08789357543
0.00000000000 0.90151172876 0.09848833829
0.00000000000 0.83284169436 0.16715836525
0.00000000000 0.46922919154 0.53077077866
0.00000000000 0.99418711662 0.00581282331
0.00000000000 0.23387534916 0.76612460613
0.00000000000 0.97231829166 0.02768168226
0.00000000000 0.94408458471 0.05591542274
0.00000000000 0.06247505546 0.93752497435
0.00000000000 0.72561085224 0.27438914776
0.00000000000 0.98561251163 0.01438754890
0.00000000000 0.07311568409 0.92688429356
1.00000000000 0.00300324056 0.99699676037
1.00000000000 0.02283469215 0.97716522217
0.00000000000 0.97653400898 0.02346600778
0.00000000000 0.98812937737 0.01187059190
1.00000000000 0.14310115576 0.85689884424
0.00000000000 0.99709606171 0.00290392246
0.00000000000 0.99161195755 0.00838802569
1.00000000000 0.03867378086 0.96132624149
1.00000000000 0.00291103171 0.99708896875
0.00000000000 0.15364818275 0.84635186195
0.00000000000 0.62788230181 0.37211772799
0.00000000000 0.83591568470 0.16408431530
0.00000000000 0.98917585611 0.01082417555
0.00000000000 0.98310559988 0.01689435728
0.00000000000 0.99205267429 0.00794729684
0.00000000000 0.99117976427 0.00882020872
0.00000000000 0.98325794935 0.01674208045
0.00000000000 0.98550176620 0.01449816860
0.00000000000 0.24894344807 0.75105655193
0.00000000000 0.03264959902 0.96735036373
0.00000000000 0.18624353409 0.81375646591
0.00000000000 0.99578309059 0.00421689311
0.00000000000 0.99753832817 0.00246170000
0.00000000000 0.99055135250 0.00944868475
1.00000000000 0.00330460933 0.99669539928
0.00000000000 0.98955780268 0.01044219267
0.00000000000 0.98269879818 0.01730114780
1.00000000000 0.94626337290 0.05373657867
0.00000000000 0.00339880516 0.99660122395
0.00000000000 0.96125012636 0.03874989226
0.00000000000 0.98594796658 0.01405205391
0.00000000000 0.99521231651 0.00478766998
0.00000000000 0.98625862598 0.01374136470
0.00000000000 0.98082250357 0.01917749271
0.00000000000 0.99122297764 0.00877698418
0.00000000000 0.99558866024 0.00441136956
0.00000000000 0.66185498238 0.33814507723
0.00000000000 0.84584051371 0.15415947139
0.00000000000 0.99547261000 0.00452741329
0.00000000000 0.95517349243 0.04482645541
0.00000000000 0.99644559622 0.00355442544
1.00000000000 0.22073502839 0.77926492691
0.00000000000 0.99728548527 0.00271450123
0.00000000000 0.99632638693 0.00367358397
0.00000000000 0.02856388502 0.97143608332
0.00000000000 0.99658149481 0.00341848074
0.00000000000 0.00407140376 0.99592858553
0.00000000000 0.02578110062 0.97421884537
0.00000000000 0.99123764038 0.00876240246
0.00000000000 0.99311006069 0.00688996073
1.00000000000 0.00489894347 0.99510103464
1.00000000000 0.98921006918 0.01079001185
0.00000000000 0.85402280092 0.14597722888
0.00000000000 0.00770275434 0.99229723215
0.00000000000 0.89010959864 0.10989048332
1.00000000000 0.20206230879 0.79793769121
0.00000000000 0.99531352520 0.00468647992
0.00000000000 0.99425923824 0.00574070401
0.00000000000 0.98320364952 0.01679635234
0.00000000000 0.99715340137 0.00284661865
0.00000000000 0.98151242733 0.01848754846
0.00000000000 0.99463248253 0.00536748208
0.00000000000 0.99746203423 0.00253799208
0.00000000000 0.99264365435 0.00735632703
0.00000000000 0.99269402027 0.00730595551
0.00000000000 0.89943796396 0.10056204349
0.00000000000 0.93954032660 0.06045963243
0.00000000000 0.67942780256 0.32057225704
0.00000000000 0.00549484789 0.99450510740
0.00000000000 0.99662953615 0.00337044802
0.00000000000 0.97776901722 0.02223093435
0.00000000000 0.96001356840 0.03998649120
0.00000000000 0.95698773861 0.04301228374
1.00000000000 0.00308536086 0.99691462517
0.00000000000 0.99317991734 0.00682005147
0.00000000000 0.03396321833 0.96603673697
0.00000000000 0.97728592157 0.02271408401
0.00000000000 0.00731044216 0.99268954992
0.00000000000 0.35693368316 0.64306634665
1.00000000000 0.99147951603 0.00852046628
1.00000000000 0.06152431667 0.93847566843
0.00000000000 0.00592732010 0.99407273531
0.00000000000 0.98308092356 0.01691909321
0.00000000000 0.99662101269 0.00337898498
0.00000000000 0.99625694752 0.00374302641
1.00000000000 0.01478451770 0.98521542549
0.00000000000 0.97286397219 0.02713605575
1.00000000000 0.82797145844 0.17202857137
0.00000000000 0.00752129499 0.99247872829
0.00000000000 0.99475312233 0.00524682458
0.00000000000 0.94586533308 0.05413464829
0.00000000000 0.01488958858 0.98511040211
1.00000000000 0.02272106148 0.97727900743
0.00000000000 0.89305514097 0.10694488883
0.00000000000 0.99485081434 0.00514921919
0.00000000000 0.11664071679 0.88335931301
0.00000000000 0.16187544167 0.83812457323
0.00000000000 0.99680733681 0.00319274724
0.00000000000 0.93964272738 0.06035726145
0.00000000000 0.04843037575 0.95156967640
0.00000000000 0.99657982588 0.00342014153
1.00000000000 0.14024560153 0.85975438356
0.00000000000 0.98550063372 0.01449935511
0.00000000000 0.99422121048 0.00577886822
0.00000000000 0.61757993698 0.38242009282
0.00000000000 0.99264889956 0.00735112373
0.00000000000 0.03798691928 0.96201312542
1.00000000000 0.14631345868 0.85368651152
0.00000000000 0.97942537069 0.02057459950
0.00000000000 0.22267468274 0.77732533216
0.00000000000 0.99513030052 0.00486971112
0.00000000000 0.96575546265 0.03424456343
1.00000000000 0.00370616652 0.99629384279
1.00000000000 0.99490982294 0.00509017380
1.00000000000 0.01618893072 0.98381108046
0.00000000000 0.15007993579 0.84992003441
1.00000000000 0.85357505083 0.14642493427
0.00000000000 0.95694774389 0.04305221885
0.00000000000 0.71868288517 0.28131714463
0.00000000000 0.56651169062 0.43348836899
0.00000000000 0.95179283619 0.04820717126
0.00000000000 0.98735654354 0.01264346018
0.00000000000 0.95339608192 0.04660394043
0.00000000000 0.99519038200 0.00480962684
0.00000000000 0.36783626676 0.63216376305
1.00000000000 0.00358991628 0.99641007185
0.00000000000 0.99281340837 0.00718664005
0.00000000000 0.99342280626 0.00657719746
1.00000000000 0.99543350935 0.00456641661
0.00000000000 0.99723780155 0.00276223430
0.00000000000 0.98446494341 0.01553508453
0.00000000000 0.99597579241 0.00402419036
1.00000000000 0.00312074251 0.99687922001
0.00000000000 0.36575749516 0.63424247503
1.00000000000 0.01443688478 0.98556315899
1.00000000000 0.04926492646 0.95073503256
0.00000000000 0.02516810969 0.97483193874
0.00000000000 0.99711132050 0.00288871164
1.00000000000 0.30503195524 0.69496810436
1.00000000000 0.97176682949 0.02823315002
1.00000000000 0.57520991564 0.42479005456
0.00000000000 0.99700975418 0.00299022626
0.00000000000 0.00825309753 0.99174690247
0.00000000000 0.98594045639 0.01405960228
0.00000000000 0.97836178541 0.02163820341
0.00000000000 0.65736401081 0.34263592958
1.00000000000 0.01532372739 0.98467630148
0.00000000000 0.97235804796 0.02764189802
1.00000000000 0.00640944857 0.99359059334
0.00000000000 0.01887826435 0.98112165928
1.00000000000 0.78117334843 0.21882666647
0.00000000000 0.98789924383 0.01210072078
0.00000000000 0.74503684044 0.25496321917
0.00000000000 0.00597487576 0.99402517080
0.00000000000 0.98019951582 0.01980055869
0.00000000000 0.71415430307 0.28584566712
0.00000000000 0.94750833511 0.05249164253
0.00000000000 0.98667436838 0.01332556084
0.00000000000 0.97420394421 0.02579611540
0.00000000000 0.89142745733 0.10857253522
0.00000000000 0.99511539936 0.00488461554
1.00000000000 0.00404179608 0.99595814943
0.00000000000 0.09840925038 0.90159076452
0.00000000000 0.99732190371 0.00267814146
0.00000000000 0.96085292101 0.03914712369
0.00000000000 0.99729543924 0.00270452164
0.00000000000 0.99671351910 0.00328651117
0.00000000000 0.97271841764 0.02728158794
0.00000000000 0.99592459202 0.00407546666
0.00000000000 0.99550133944 0.00449859770
0.00000000000 0.99611616135 0.00388383633
0.00000000000 0.99569338560 0.00430669216
0.00000000000 0.80455487967 0.19544507563
0.00000000000 0.99238777161 0.00761230430
0.00000000000 0.84802263975 0.15197733045
0.00000000000 0.84958577156 0.15041419864
1.00000000000 0.01817670092 0.98182332516
0.00000000000 0.98773193359 0.01226805057
0.00000000000 0.99726164341 0.00273836078
0.00000000000 0.99527966976 0.00472030649
0.00000000000 0.07006061822 0.92993932962
0.00000000000 0.99662375450 0.00337628834
0.00000000000 0.99462538958 0.00537457364
0.00000000000 0.96382308006 0.03617690876
0.00000000000 0.98574709892 0.01425293647
0.00000000000 0.99445891380 0.00554107362
0.00000000000 0.99684590101 0.00315409154
0.00000000000 0.96056145430 0.03943850845
0.00000000000 0.00791758392 0.99208235741
0.00000000000 0.09159069508 0.90840935707
0.00000000000 0.98772776127 0.01227220520
0.00000000000 0.94130212069 0.05869787931
0.00000000000 0.91123193502 0.08876805007
1.00000000000 0.00560896192 0.99439102411
0.00000000000 0.14490500093 0.85509496927
0.00000000000 0.99591785669 0.00408210978
0.00000000000 0.98771822453 0.01228178199
1.00000000000 0.74612265825 0.25387734175
0.00000000000 0.06549225748 0.93450778723
0.00000000000 0.08804646879 0.91195350885
0.00000000000 0.98843735456 0.01156257279
0.00000000000 0.99571096897 0.00428905943
0.00000000000 0.99568068981 0.00431925012
0.00000000000 0.99675601721 0.00324392761
0.00000000000 0.99138873816 0.00861123577
0.00000000000 0.98482137918 0.01517858822
1.00000000000 0.95584374666 0.04415630549
0.00000000000 0.99756610394 0.00243393052
0.00000000000 0.07887597382 0.92112398148
0.00000000000 0.01345636230 0.98654359579
0.00000000000 0.97547942400 0.02452058904
0.00000000000 0.99280178547 0.00719827786
0.00000000000 0.01712202281 0.98287796974
0.00000000000 0.99691003561 0.00308996229
0.00000000000 0.99686628580 0.00313364970
0.00000000000 0.28061267734 0.71938735247
0.00000000000 0.99364930391 0.00635067280
0.00000000000 0.99461466074 0.00538531831
0.00000000000 0.95858424902 0.04141573235
0.00000000000 0.98139047623 0.01860947348
0.00000000000 0.98402911425 0.01597089134
0.00000000000 0.99759417772 0.00240579341
0.00000000000 0.99637788534 0.00362215005
0.00000000000 0.98963671923 0.01036327984
0.00000000000 0.38971912861 0.61028087139
0.00000000000 0.28504714370 0.71495288610
0.00000000000 0.37052959204 0.62947040796
0.00000000000 0.99625575542 0.00374418753
0.00000000000 0.99522745609 0.00477250572
0.00000000000 0.54267442226 0.45732554793
0.00000000000 0.98963892460 0.01036109496
0.00000000000 0.69771480560 0.30228516459
0.00000000000 0.99157261848 0.00842739828
0.00000000000 0.97672718763 0.02327279560
0.00000000000 0.62495774031 0.37504228950
0.00000000000 0.99598532915 0.00401466899
0.00000000000 0.99231564999 0.00768434163
0.00000000000 0.99523216486 0.00476785190
1.00000000000 0.00375558832 0.99624443054
0.00000000000 0.99686807394 0.00313193002
0.00000000000 0.86382961273 0.13617041707
0.00000000000 0.99135333300 0.00864668749
0.00000000000 0.99644792080 0.00355200260
1.00000000000 0.00264432258 0.99735569954
0.00000000000 0.91658413410 0.08341591805
0.00000000000 0.98904711008 0.01095289551
0.00000000000 0.99743598700 0.00256402488
0.00000000000 0.77462434769 0.22537562251
1.00000000000 0.95869249105 0.04130754247
0.00000000000 0.99682980776 0.00317023764
0.00000000000 0.12276519090 0.87723481655
0.00000000000 0.98674505949 0.01325493399
0.00000000000 0.99692082405 0.00307923486
0.00000000000 0.99272412062 0.00727595389
0.00000000000 0.99687236547 0.00312763336
0.00000000000 0.91689407825 0.08310595900
0.00000000000 0.67329645157 0.32670351863
0.00000000000 0.99699091911 0.00300907157
0.00000000000 0.65370494127 0.34629505873
0.00000000000 0.99386578798 0.00613416592
0.00000000000 0.99226939678 0.00773053244
0.00000000000 0.99367475510 0.00632531568
0.00000000000 0.99281609058 0.00718388427
0.00000000000 0.98330485821 0.01669515856
0.00000000000 0.02636030875 0.97363972664
0.00000000000 0.98404455185 0.01595547423
0.00000000000 0.99652230740 0.00347767188
0.00000000000 0.98905479908 0.01094519719
0.00000000000 0.98730045557 0.01269959100
0.00000000000 0.99458980560 0.00541017810
1.00000000000 0.00295253564 0.99704748392
0.00000000000 0.98549401760 0.01450594421
0.00000000000 0.99526166916 0.00473833876
0.00000000000 0.99631530046 0.00368470210
0.00000000000 0.99104475975 0.00895524677
1.00000000000 0.00312246848 0.99687755108
0.00000000000 0.99589806795 0.00410190970
0.00000000000 0.96469938755 0.03530067950
0.00000000000 0.99235981703 0.00764017412
0.00000000000 0.94513082504 0.05486912280
0.00000000000 0.98765999079 0.01234006323
0.00000000000 0.06770615280 0.93229377270
0.00000000000 0.98570561409 0.01429434307
0.00000000000 0.63104885817 0.36895120144
0.00000000000 0.98475652933 0.01524353959
0.00000000000 0.98277294636 0.01722706854
0.00000000000 0.97262638807 0.02737358771
0.00000000000 0.97625219822 0.02374785021
0.00000000000 0.99490272999 0.00509723974
0.00000000000 0.22390858829 0.77609145641
0.00000000000 0.75818288326 0.24181717634
1.00000000000 0.99396789074 0.00603204686
1.00000000000 0.04043438286 0.95956563950
0.00000000000 0.98540985584 0.01459016558
1.00000000000 0.07731074095 0.92268925905
0.00000000000 0.98711037636 0.01288967766
0.00000000000 0.98726230860 0.01273763552
0.00000000000 0.72862911224 0.27137088776
0.00000000000 0.97980850935 0.02019146271
0.00000000000 0.01440082025 0.98559916019
0.00000000000 0.99527907372 0.00472094305
0.00000000000 0.99074965715 0.00925032422
0.00000000000 0.98630779982 0.01369220763
0.00000000000 0.99620217085 0.00379784754
0.00000000000 0.76091742516 0.23908254504
0.00000000000 0.97954797745 0.02045201138
0.00000000000 0.99441999197 0.00557995448
0.00000000000 0.66001456976 0.33998548985
0.00000000000 0.94261616468 0.05738386139
1.00000000000 0.96068769693 0.03931230307
0.00000000000 0.99546092749 0.00453910604
0.00000000000 0.54274278879 0.45725718141
0.00000000000 0.87323909998 0.12676092982
0.00000000000 0.98720413446 0.01279585343
0.00000000000 0.99375498295 0.00624493882
0.00000000000 0.99687165022 0.00312836957
0.00000000000 0.01782690920 0.98217314482
0.00000000000 0.99251633883 0.00748364069
0.00000000000 0.95044291019 0.04955707490
0.00000000000 0.98942369223 0.01057633478
0.00000000000 0.99583262205 0.00416735560
0.00000000000 0.97857010365 0.02142998204
0.00000000000 0.89791661501 0.10208335519
0.00000000000 0.49514403939 0.50485599041
0.00000000000 0.97167229652 0.02832772210
0.00000000000 0.20787110925 0.79212892056
0.00000000000 0.74920141697 0.25079861283
0.00000000000 0.99110692739 0.00889312569
0.00000000000 0.07947985828 0.92052012682
0.00000000000 0.16131201386 0.83868801594
0.00000000000 0.99656891823 0.00343110017
0.00000000000 0.09044475108 0.90955525637
1.00000000000 0.00276033417 0.99723970890
0.00000000000 0.04680275917 0.95319730043
0.00000000000 0.98968261480 0.01031736657
0.00000000000 0.83692091703 0.16307914257
0.00000000000 0.04421655461 0.95578342676
0.00000000000 0.98592698574 0.01407304592
1.00000000000 0.04458510503 0.95541495085
1.00000000000 0.00389557774 0.99610447884
0.00000000000 0.99658560753 0.00341437827
0.00000000000 0.00595947308 0.99404054880
0.00000000000 0.99742704630 0.00257289223
0.00000000000 0.00712615345 0.99287378788
0.00000000000 0.68179070950 0.31820929050
0.00000000000 0.99539679289 0.00460324250
0.00000000000 0.98862898350 0.01137103792
0.00000000000 0.00430885935 0.99569112062
0.00000000000 0.98404467106 0.01595535502
0.00000000000 0.90266764164 0.09733231366
0.00000000000 0.99503111839 0.00496882293
0.00000000000 0.02081128024 0.97918874025
0.00000000000 0.98836690187 0.01163309719
0.00000000000 0.38196438551 0.61803555489
0.00000000000 0.97750186920 0.02249814942
0.00000000000 0.03762199357 0.96237796545
0.00000000000 0.99003684521 0.00996310357
0.00000000000 0.90252608061 0.09747388214
0.00000000000 0.92543405294 0.07456601411
0.00000000000 0.98872792721 0.01127212029
0.00000000000 0.99228763580 0.00771240098
0.00000000000 0.18485538661 0.81514459848
1.00000000000 0.91734027863 0.08265973628
0.00000000000 0.99052435160 0.00947571080
0.00000000000 0.97738182545 0.02261819132
1.00000000000 0.91294151545 0.08705848455
0.00000000000 0.99494993687 0.00505000446
1.00000000000 0.01596583985 0.98403418064
0.00000000000 0.61018401384 0.38981598616
0.00000000000 0.99627679586 0.00372314081
0.00000000000 0.99643898010 0.00356110628
0.00000000000 0.90793877840 0.09206121415
0.00000000000 0.99421209097 0.00578789925
0.00000000000 0.62888872623 0.37111130357
0.00000000000 0.99677222967 0.00322768977
0.00000000000 0.99575895071 0.00424104743
0.00000000000 0.98789435625 0.01210570522
0.00000000000 0.99728870392 0.00271126279
0.00000000000 0.99620372057 0.00379628385
0.00000000000 0.89179402590 0.10820597410
0.00000000000 0.12369024009 0.87630969286
0.00000000000 0.95152467489 0.04847529903
0.00000000000 0.92836099863 0.07163899392
0.00000000000 0.99463945627 0.00536057260
0.00000000000 0.98509949446 0.01490049809
0.00000000000 0.95440000296 0.04559996724
0.00000000000 0.98626917601 0.01373082772
0.00000000000 0.00677830679 0.99322164059
0.00000000000 0.80247312784 0.19752687216
0.00000000000 0.99507182837 0.00492809108
1.00000000000 0.01799988747 0.98200005293
1.00000000000 0.07624100894 0.92375898361
0.00000000000 0.89167642593 0.10832356662
0.00000000000 0.99192082882 0.00807919726
0.00000000000 0.99373102188 0.00626896648
0.00000000000 0.92231774330 0.07768223435
0.00000000000 0.98298543692 0.01701453514
0.00000000000 0.56583857536 0.43416136503
1.00000000000 0.00285573280 0.99714428186
1.00000000000 0.00649119634 0.99350881577
0.00000000000 0.99657875299 0.00342118647
1.00000000000 0.98847836256 0.01152158715
0.00000000000 0.99577748775 0.00422252156
0.00000000000 0.99131703377 0.00868295971
1.00000000000 0.04122069478 0.95877927542
0.00000000000 0.32671076059 0.67328923941
1.00000000000 0.99271965027 0.00728031853
0.00000000000 0.00575319957 0.99424678087
0.00000000000 0.96877127886 0.03122874722
0.00000000000 0.99352645874 0.00647360552
0.00000000000 0.99753785133 0.00246216729
0.00000000000 0.52675646544 0.47324353456
0.00000000000 0.01182508841 0.98817491531
0.00000000000 0.08331122249 0.91668879986
0.00000000000 0.98207366467 0.01792635769
0.00000000000 0.02854066156 0.97145938873
0.00000000000 0.03990114853 0.96009880304
0.00000000000 0.98759436607 0.01240565628
0.00000000000 0.99691557884 0.00308445608
0.00000000000 0.99479633570 0.00520373462
0.00000000000 0.99698215723 0.00301785627
0.00000000000 0.99498218298 0.00501785846
1.00000000000 0.77078098059 0.22921900451
0.00000000000 0.04447344318 0.95552659035
0.00000000000 0.49582272768 0.50417733192
0.00000000000 0.87721604109 0.12278401107
0.00000000000 0.63335126638 0.36664876342
0.00000000000 0.96914631128 0.03085368872
0.00000000000 0.95329034328 0.04670970887
0.00000000000 0.99522447586 0.00477549201
0.00000000000 0.73098134995 0.26901867986
0.00000000000 0.80574095249 0.19425904751
1.00000000000 0.00573952869 0.99426043034
0.00000000000 0.99633598328 0.00366402185
0.00000000000 0.91043049097 0.08956947923
0.00000000000 0.89485806227 0.10514191538
0.00000000000 0.98300480843 0.01699523441
0.00000000000 0.99447745085 0.00552261667
1.00000000000 0.95851969719 0.04148029909
0.00000000000 0.99329113960 0.00670880266
1.00000000000 0.73678576946 0.26321426034
0.00000000000 0.99737310410 0.00262685982
0.00000000000 0.99690222740 0.00309784105
0.00000000000 0.38481172919 0.61518830061
1.00000000000 0.94108861685 0.05891137943
0.00000000000 0.99730849266 0.00269152736
0.00000000000 0.54533511400 0.45466482639
1.00000000000 0.00256815972 0.99743181467
0.00000000000 0.99496871233 0.00503128255
0.00000000000 0.99540615082 0.00459390972
0.00000000000 0.99302685261 0.00697313668
1.00000000000 0.10142578930 0.89857417345
0.00000000000 0.77964180708 0.22035819292
0.00000000000 0.93275398016 0.06724604964
0.00000000000 0.80948704481 0.19051297009
0.00000000000 0.96157157421 0.03842848912
0.00000000000 0.83245277405 0.16754725575
1.00000000000 0.99686026573 0.00313968374
0.00000000000 0.99329811335 0.00670195557
0.00000000000 0.99685943127 0.00314058550
1.00000000000 0.02958411723 0.97041589022
0.00000000000 0.86102193594 0.13897806406
0.00000000000 0.88809877634 0.11190126836
0.00000000000 0.99539583921 0.00460410351
0.00000000000 0.99707949162 0.00292057800
0.00000000000 0.91417539120 0.08582462370
0.00000000000 0.49644762278 0.50355237722
0.00000000000 0.00398783991 0.99601221085
0.00000000000 0.99392336607 0.00607664650
0.00000000000 0.99691271782 0.00308721373
0.00000000000 0.99584984779 0.00415017968
0.00000000000 0.93446040154 0.06553964317
0.00000000000 0.98882138729 0.01117858384
0.00000000000 0.91281872988 0.08718123287
1.00000000000 0.00352227013 0.99647778273
1.00000000000 0.69492197037 0.30507802963
0.00000000000 0.00840081461 0.99159920216
0.00000000000 0.99620169401 0.00379830040
0.00000000000 0.99614620209 0.00385375763
1.00000000000 0.73511427641 0.26488572359
0.00000000000 0.98927819729 0.01072178129
0.00000000000 0.83607935905 0.16392067075
0.00000000000 0.86361956596 0.13638043404
0.00000000000 0.41088986397 0.58911013603
0.00000000000 0.00303181051 0.99696820974
0.00000000000 0.98283666372 0.01716336608
1.00000000000 0.01009122934 0.98990881443
0.00000000000 0.99422377348 0.00577627216
0.00000000000 0.99749833345 0.00250160135
0.00000000000 0.98695558310 0.01304442156
0.00000000000 0.64274376631 0.35725629330
0.00000000000 0.99653756618 0.00346245943
0.00000000000 0.00461212825 0.99538785219
0.00000000000 0.99583494663 0.00416499609
0.00000000000 0.73136025667 0.26863974333
0.00000000000 0.14398427308 0.85601568222
0.00000000000 0.81486064196 0.18513940275
0.00000000000 0.89462751150 0.10537254810
1.00000000000 0.98849618435 0.01150381006
0.00000000000 0.00492409011 0.99507588148
0.00000000000 0.98306447268 0.01693556644
0.00000000000 0.67390406132 0.32609593868
0.00000000000 0.91781532764 0.08218464255
0.00000000000 0.99709880352 0.00290126051
0.00000000000 0.98804712296 0.01195290778
1.00000000000 0.00371565833 0.99628436565
0.00000000000 0.04941480234 0.95058518648
0.00000000000 0.95971328020 0.04028667510
0.00000000000 0.39225903153 0.60774099827
0.00000000000 0.25182980299 0.74817013741
0.00000000000 0.97660076618 0.02339926735
0.00000000000 0.99360364676 0.00639640773
0.00000000000 0.94225215912 0.05774786323
0.00000000000 0.99620085955 0.00379915396
0.00000000000 0.95319730043 0.04680274427
1.00000000000 0.00358766550 0.99641233683
0.00000000000 0.99112308025 0.00887687877
0.00000000000 0.82552736998 0.17447267473
1.00000000000 0.00298146927 0.99701857567
0.00000000000 0.96618515253 0.03381482884
0.00000000000 0.98661208153 0.01338789705
0.00000000000 0.95356124640 0.04643877223
1.00000000000 0.67970371246 0.32029631734
0.00000000000 0.99318379164 0.00681617716
0.00000000000 0.99707591534 0.00292408490
0.00000000000 0.03868857771 0.96131139994
0.00000000000 0.99327480793 0.00672519580
0.00000000000 0.99601447582 0.00398554746
0.00000000000 0.99155527353 0.00844472367
0.00000000000 0.95973765850 0.04026234150
0.00000000000 0.99576807022 0.00423193118
0.00000000000 0.98445630074 0.01554372162
0.00000000000 0.57902014256 0.42097985744
1.00000000000 0.99064588547 0.00935408194
0.00000000000 0.09316793084 0.90683203936
0.00000000000 0.99569928646 0.00430071494
0.00000000000 0.98037648201 0.01962357946
0.00000000000 0.78670907021 0.21329095960
0.00000000000 0.05332113802 0.94667881727
0.00000000000 0.88265216351 0.11734778434
0.00000000000 0.23247537017 0.76752460003
1.00000000000 0.05772971734 0.94227021933
0.00000000000 0.10194810480 0.89805185795
1.00000000000 0.00349501520 0.99650502205
0.00000000000 0.01107488666 0.98892515898
0.00000000000 0.27930560708 0.72069436312
0.00000000000 0.98184883595 0.01815118641
0.00000000000 0.99087405205 0.00912596565
0.00000000000 0.98564535379 0.01435458660
0.00000000000 0.99561077356 0.00438923901
0.00000000000 0.00618236931 0.99381762743
0.00000000000 0.99448907375 0.00551088341
1.00000000000 0.47229447961 0.52770549059
0.00000000000 0.04518723488 0.95481276512
0.00000000000 0.00950119179 0.99049884081
1.00000000000 0.01525976602 0.98474019766
0.00000000000 0.99574440718 0.00425553601
1.00000000000 0.00296314270 0.99703681469
1.00000000000 0.97978687286 0.02021309920
1.00000000000 0.09404055774 0.90595942736
1.00000000000 0.98384988308 0.01615012065
0.00000000000 0.96622866392 0.03377128020
0.00000000000 0.99222552776 0.00777448341
0.00000000000 0.99657970667 0.00342028425
0.00000000000 0.99715828896 0.00284171500
0.00000000000 0.84836775064 0.15163224936
0.00000000000 0.98723071814 0.01276925206
0.00000000000 0.98474657536 0.01525347680
0.00000000000 0.88070410490 0.11929588020
0.00000000000 0.77992874384 0.22007121146
0.00000000000 0.99655497074 0.00344509888
0.00000000000 0.93413144350 0.06586851925
0.00000000000 0.16613112390 0.83386886120
1.00000000000 0.00857827254 0.99142175913
0.00000000000 0.00638747960 0.99361246824
0.00000000000 0.99184906483 0.00815096125
1.00000000000 0.02483641356 0.97516363859
0.00000000000 0.88643795252 0.11356207728
1.00000000000 0.00300208409 0.99699795246
0.00000000000 0.98927724361 0.01072274242
0.00000000000 0.99481153488 0.00518844463
0.00000000000 0.92492884398 0.07507110387
0.00000000000 0.99553227425 0.00446767174
0.00000000000 0.99304115772 0.00695881806
0.00000000000 0.93375682831 0.06624317169
0.00000000000 0.99566119909 0.00433884375
0.00000000000 0.36290314794 0.63709682226
0.00000000000 0.98797380924 0.01202622522
1.00000000000 0.99681586027 0.00318413111
0.00000000000 0.05208342895 0.94791662693
0.00000000000 0.81938195229 0.18061803281
1.00000000000 0.34525808692 0.65474188328
0.00000000000 0.39501684904 0.60498315096
0.00000000000 0.97744101286 0.02255901136
0.00000000000 0.97363549471 0.02636448294
0.00000000000 0.29600557685 0.70399439335
1.00000000000 0.00760412402 0.99239587784
0.00000000000 0.99639707804 0.00360300578
0.00000000000 0.99638712406 0.00361284451
0.00000000000 0.96436733007 0.03563267365
0.00000000000 0.99438643456 0.00561357010
0.00000000000 0.99567246437 0.00432756823
0.00000000000 0.98630756140 0.01369240694
1.00000000000 0.21525113285 0.78474891186
0.00000000000 0.99533087015 0.00466914801
0.00000000000 0.98805338144 0.01194661297
0.00000000000 0.98884308338 0.01115686260
0.00000000000 0.22619083524 0.77380913496
0.00000000000 0.36418232322 0.63581764698
0.00000000000 0.26962742209 0.73037254810
0.00000000000 0.89924001694 0.10076003522
1.00000000000 0.50835275650 0.49164724350
1.00000000000 0.60735845566 0.39264154434
0.00000000000 0.70773905516 0.29226097465
0.00000000000 0.99178105593 0.00821894687
0.00000000000 0.06447254121 0.93552744389
0.00000000000 0.77019321918 0.22980678082
0.00000000000 0.19935084879 0.80064916611
0.00000000000 0.98944711685 0.01055287383
0.00000000000 0.98018163443 0.01981833763
0.00000000000 0.97770166397 0.02229830436
0.00000000000 0.97737044096 0.02262963168
0.00000000000 0.99759185314 0.00240817713
0.00000000000 0.98847603798 0.01152396016
1.00000000000 0.90951228142 0.09048779309
0.00000000000 0.90700584650 0.09299416840
0.00000000000 0.97279208899 0.02720791474
0.00000000000 0.94079560041 0.05920435488
0.00000000000 0.99487251043 0.00512746396
1.00000000000 0.07797727734 0.92202275991
1.00000000000 0.48588481545 0.51411515474
0.00000000000 0.99537634850 0.00462362636
0.00000000000 0.22449952364 0.77550047636
0.00000000000 0.93792229891 0.06207772344
1.00000000000 0.98652076721 0.01347928587
0.00000000000 0.99568438530 0.00431565288
0.00000000000 0.99695587158 0.00304410048
1.00000000000 0.02468960546 0.97531044483
1.00000000000 0.42817094922 0.57182908058
0.00000000000 0.01419379283 0.98580616713
0.00000000000 0.99510633945 0.00489367452
0.00000000000 0.99512201548 0.00487793516
0.00000000000 0.91487210989 0.08512789756
0.00000000000 0.99400675297 0.00599322980
0.00000000000 0.99519568682 0.00480427779
0.00000000000 0.93126875162 0.06873122603
1.00000000000 0.00352321099 0.99647682905
0.00000000000 0.98268008232 0.01731989346
1.00000000000 0.00457929028 0.99542063475
0.00000000000 0.99687850475 0.00312143983
0.00000000000 0.89809077978 0.10190917552
0.00000000000 0.00854303408 0.99145692587
1.00000000000 0.56536889076 0.43463113904
0.00000000000 0.99454087019 0.00545915030
0.00000000000 0.99706214666 0.00293784705
0.00000000000 0.99407720566 0.00592276687
1.00000000000 0.59765970707 0.40234026313
1.00000000000 0.00279201893 0.99720793962
1.00000000000 0.99426239729 0.00573761109
0.00000000000 0.97970014811 0.02029989474
1.00000000000 0.00299103791 0.99700897932
0.00000000000 0.96460539103 0.03539456055
0.00000000000 0.99688404799 0.00311597716
0.00000000000 0.98788493872 0.01211510599
0.00000000000 0.99497741461 0.00502257980
0.00000000000 0.99325048923 0.00674954662
0.00000000000 0.97390276194 0.02609723434
0.00000000000 0.98949134350 0.01050860807
0.00000000000 0.00518133398 0.99481862783
0.00000000000 0.03061715700 0.96938288212
0.00000000000 0.99721705914 0.00278288010
0.00000000000 0.92412686348 0.07587319613
1.00000000000 0.00337367225 0.99662637711
0.00000000000 0.99573516846 0.00426482921
1.00000000000 0.08236577362 0.91763418913
0.00000000000 0.99708002806 0.00291998964
0.00000000000 0.00584393693 0.99415600300
0.00000000000 0.19551464915 0.80448538065
0.00000000000 0.52972304821 0.47027698159
0.00000000000 0.98719495535 0.01280507445
0.00000000000 0.99364942312 0.00635057036
0.00000000000 0.16716116667 0.83283877373
0.00000000000 0.99380624294 0.00619377382
0.00000000000 0.99752360582 0.00247637765
0.00000000000 0.02275809459 0.97724187374
0.00000000000 0.04006806016 0.95993191004
0.00000000000 0.98521357775 0.01478646416
0.00000000000 0.99327880144 0.00672121253
0.00000000000 0.98680496216 0.01319507789
0.00000000000 0.99173086882 0.00826919731
0.00000000000 0.99180763960 0.00819230173
0.00000000000 0.98514252901 0.01485750079
0.00000000000 0.99626320601 0.00373681006
1.00000000000 0.00323272427 0.99676728249
0.00000000000 0.11037007719 0.88962996006
0.00000000000 0.99503254890 0.00496750372
0.00000000000 0.80514639616 0.19485361874
0.00000000000 0.02008165233 0.97991836071
0.00000000000 0.98720234632 0.01279763784
0.00000000000 0.99550747871 0.00449250545
0.00000000000 0.99545115232 0.00454891380
0.00000000000 0.72164636850 0.27835360169
0.00000000000 0.88027775288 0.11972221732
0.00000000000 0.97903877497 0.02096119151
0.00000000000 0.89065414667 0.10934586078
1.00000000000 0.99377810955 0.00622186949
0.00000000000 0.98557680845 0.01442319900
0.00000000000 0.97773790359 0.02226207033
1.00000000000 0.00330902101 0.99669098854
1.00000000000 0.00858531520 0.99141472578
0.00000000000 0.97041589022 0.02958409674
0.00000000000 0.95776909590 0.04223088175
0.00000000000 0.56932395697 0.43067601323
0.00000000000 0.76124137640 0.23875863850
0.00000000000 0.95058119297 0.04941876978
0.00000000000 0.99628436565 0.00371556939
0.00000000000 0.96329224110 0.03670778126
0.00000000000 0.99049288034 0.00950707588
0.00000000000 0.02349659055 0.97650343180
0.00000000000 0.79381603003 0.20618399978
0.00000000000 0.99031257629 0.00968744699
0.00000000000 0.99616676569 0.00383316074
1.00000000000 0.00259408890 0.99740594625
0.00000000000 0.78679054976 0.21320946515
1.00000000000 0.00341985561 0.99658018351
0.00000000000 0.99605333805 0.00394662283
0.00000000000 0.99158233404 0.00841764081
0.00000000000 0.99343985319 0.00656016450
0.00000000000 0.78493201733 0.21506793797
0.00000000000 0.99585318565 0.00414678315
0.00000000000 0.98442876339 0.01557122450
0.00000000000 0.99702829123 0.00297169643
0.00000000000 0.99607509375 0.00392487319
0.00000000000 0.92144399881 0.07855601609
0.00000000000 0.98977309465 0.01022695098
0.00000000000 0.99630665779 0.00369330193
0.00000000000 0.89826232195 0.10173768550
0.00000000000 0.99376535416 0.00623465003
0.00000000000 0.99719965458 0.00280037569
0.00000000000 0.90812009573 0.09187984467
0.00000000000 0.98728615046 0.01271390077
0.00000000000 0.99402171373 0.00597823225
0.00000000000 0.83690863848 0.16309140623
0.00000000000 0.99547868967 0.00452136761
0.00000000000 0.99159520864 0.00840475969
0.00000000000 0.89758706093 0.10241295397
0.00000000000 0.98850739002 0.01149268448
0.00000000000 0.31613793969 0.68386209011
1.00000000000 0.97465139627 0.02534858510
0.00000000000 0.00710675679 0.99289315939
0.00000000000 0.91743057966 0.08256942034
0.00000000000 0.68098747730 0.31901249290
0.00000000000 0.99640023708 0.00359973055
0.00000000000 0.99402481318 0.00597518450
0.00000000000 0.09845742583 0.90154254436
0.00000000000 0.99378514290 0.00621490739
1.00000000000 0.99515789747 0.00484214583
0.00000000000 0.79511976242 0.20488026738
0.00000000000 0.85340225697 0.14659768343
0.00000000000 0.99713909626 0.00286089443
0.00000000000 0.60342496634 0.39657503366
0.00000000000 0.99211955070 0.00788043439
0.00000000000 0.99488246441 0.00511750532
0.00000000000 0.99594455957 0.00405545859
0.00000000000 0.57906860113 0.42093139887
0.00000000000 0.99027806520 0.00972193666
0.00000000000 0.99186396599 0.00813609920
0.00000000000 0.98731333017 0.01268661115
1.00000000000 0.01765584014 0.98234415054
0.00000000000 0.97528153658 0.02471852489
0.00000000000 0.00432525529 0.99567478895
0.00000000000 0.93130749464 0.06869247556
0.00000000000 0.47891139984 0.52108860016
0.00000000000 0.83802026510 0.16197972000
1.00000000000 0.27378442883 0.72621554136
0.00000000000 0.04441854730 0.95558142662
0.00000000000 0.68823224306 0.31176775694
0.00000000000 0.99280291796 0.00719706481
0.00000000000 0.99636250734 0.00363754528
1.00000000000 0.55635046959 0.44364956021
0.00000000000 0.99543923140 0.00456075044
0.00000000000 0.99300450087 0.00699548889
0.00000000000 0.98650395870 0.01349602826
1.00000000000 0.01331985742 0.98668020964
0.00000000000 0.95683503151 0.04316498712
0.00000000000 0.95427447557 0.04572552070
0.00000000000 0.86201691628 0.13798308372
0.00000000000 0.99544441700 0.00455563795
0.00000000000 0.98884958029 0.01115038432
0.00000000000 0.99689471722 0.00310525089
0.00000000000 0.99441272020 0.00558725372
0.00000000000 0.99680858850 0.00319133746
0.00000000000 0.65306073427 0.34693932533
0.00000000000 0.99751353264 0.00248641963
0.00000000000 0.98471248150 0.01528753620
0.00000000000 0.02843218669 0.97156780958
0.00000000000 0.93657934666 0.06342064589
0.00000000000 0.86623442173 0.13376562297
0.00000000000 0.91490966082 0.08509033918
0.00000000000 0.74095606804 0.25904393196
1.00000000000 0.97133225203 0.02866769582
0.00000000000 0.96417802572 0.03582199290
0.00000000000 0.99705076218 0.00294924853
1.00000000000 0.38533112407 0.61466884613
0.00000000000 0.53998243809 0.46001759171
0.00000000000 0.99478214979 0.00521787815
0.00000000000 0.99703997374 0.00296000997
0.00000000000 0.99688488245 0.00311506633
0.00000000000 0.98903238773 0.01096760668
1.00000000000 0.96797567606 0.03202432394
1.00000000000 0.08106607199 0.91893392801
0.00000000000 0.99014562368 0.00985433068
1.00000000000 0.99535864592 0.00464135688
0.00000000000 0.99077504873 0.00922498573
0.00000000000 0.99719870090 0.00280131167
0.00000000000 0.68363124132 0.31636875868
0.00000000000 0.87966436148 0.12033560127
1.00000000000 0.00491494872 0.99508506060
1.00000000000 0.03363313153 0.96636682749
0.00000000000 0.99463826418 0.00536172418
1.00000000000 0.10024552792 0.89975446463
0.00000000000 0.71562159061 0.28437840939
0.00000000000 0.99547380209 0.00452616019
0.00000000000 0.99433231354 0.00566764176
0.00000000000 0.01456549950 0.98543453217
0.00000000000 0.88155299425 0.11844694614
0.00000000000 0.01661516540 0.98338484764
0.00000000000 0.98306977749 0.01693025604
0.00000000000 0.92172801495 0.07827193290
0.00000000000 0.96781831980 0.03218165413
0.00000000000 0.90148186684 0.09851811826
0.00000000000 0.96245825291 0.03754176944
0.00000000000 0.99665170908 0.00334834633
1.00000000000 0.00423333189 0.99576663971
0.00000000000 0.05027828366 0.94972169399
0.00000000000 0.21250374615 0.78749620914
0.00000000000 0.98441851139 0.01558155566
0.00000000000 0.05475142226 0.94524854422
0.00000000000 0.99703073502 0.00296923914
0.00000000000 0.97204226255 0.02795778774
0.00000000000 0.34570375085 0.65429627895
0.00000000000 0.99165582657 0.00834415853
0.00000000000 0.99616587162 0.00383410393
0.00000000000 0.98652958870 0.01347042341
0.00000000000 0.79911702871 0.20088297129
0.00000000000 0.15129937232 0.84870064259
0.00000000000 0.99522447586 0.00477544172
0.00000000000 0.99414259195 0.00585735263
0.00000000000 0.13998389244 0.86001604795
0.00000000000 0.99746632576 0.00253362837
0.00000000000 0.93952548504 0.06047449261
0.00000000000 0.98224014044 0.01775985025
1.00000000000 0.00254124729 0.99745875597
0.00000000000 0.86231917143 0.13768079877
0.00000000000 0.01746898144 0.98253101110
0.00000000000 0.95857161283 0.04142838344
0.00000000000 0.99308651686 0.00691346638
0.00000000000 0.99615174532 0.00384819112
0.00000000000 0.99618113041 0.00381885050
0.00000000000 0.91924130917 0.08075872064
0.00000000000 0.99288040400 0.00711966213
0.00000000000 0.99738782644 0.00261217915
0.00000000000 0.98790097237 0.01209901087
0.00000000000 0.06972452998 0.93027544022
0.00000000000 0.98769855499 0.01230145898
0.00000000000 0.98897409439 0.01102582924
0.00000000000 0.37144050002 0.62855947018
1.00000000000 0.00325532607 0.99674463272
0.00000000000 0.99692660570 0.00307342317
0.00000000000 0.05742020160 0.94257980585
0.00000000000 0.70055234432 0.29944762588
0.00000000000 0.87905752659 0.12094242126
0.00000000000 0.85520106554 0.14479896426
0.00000000000 0.99723261595 0.00276743504
0.00000000000 0.93974149227 0.06025845930
0.00000000000 0.85513842106 0.14486159384
0.00000000000 0.99711048603 0.00288945157
0.00000000000 0.99265372753 0.00734631345
0.00000000000 0.97556155920 0.02443843149
1.00000000000 0.91873449087 0.08126552403
0.00000000000 0.98166322708 0.01833678968
0.00000000000 0.10078735650 0.89921259880
0.00000000000 0.99014520645 0.00985486619
0.00000000000 0.96885126829 0.03114870563
0.00000000000 0.07634077221 0.92365920544
1.00000000000 0.99695384502 0.00304611120
0.00000000000 0.99727874994 0.00272132037
1.00000000000 0.99572741985 0.00427264255
0.00000000000 0.49106618762 0.50893384218
0.00000000000 0.99682909250 0.00317093404
1.00000000000 0.00546548143 0.99453449249
0.00000000000 0.19503200054 0.80496793985
0.00000000000 0.96950209141 0.03049787879
0.00000000000 0.96976935863 0.03023055755
0.00000000000 0.00321976491 0.99678015709
0.00000000000 0.00415279716 0.99584728479
0.00000000000 0.98715680838 0.01284321398
1.00000000000 0.07309683412 0.92690318823
0.00000000000 0.99393701553 0.00606299378
0.00000000000 0.76064574718 0.23935425282
0.00000000000 0.96405476332 0.03594517708
0.00000000000 0.98238784075 0.01761209220
0.00000000000 0.99612325430 0.00387674593
0.00000000000 0.63053959608 0.36946043372
1.00000000000 0.49355927110 0.50644075871
0.00000000000 0.98919326067 0.01080677938
0.00000000000 0.28397366405 0.71602636576
0.00000000000 0.98936825991 0.01063179597
0.00000000000 0.78646594286 0.21353405714
0.00000000000 0.88624364138 0.11375635117
0.00000000000 0.99692279100 0.00307719200
0.00000000000 0.97043699026 0.02956301533
0.00000000000 0.99186080694 0.00813924335
0.00000000000 0.99658572674 0.00341423065
0.00000000000 0.49878150225 0.50121849775
0.00000000000 0.99594813585 0.00405183714
1.00000000000 0.98629444838 0.01370556373
0.00000000000 0.99714869261 0.00285131484
0.00000000000 0.93846106529 0.06153893843
0.00000000000 0.99233466387 0.00766530912
0.00000000000 0.94997262955 0.05002734438
0.00000000000 0.71339946985 0.28660055995
0.00000000000 0.98110711575 0.01889285631
0.00000000000 0.99126231670 0.00873762462
0.00000000000 0.99593532085 0.00406471966
1.00000000000 0.04154575616 0.95845425129
0.00000000000 0.97270232439 0.02729772590
0.00000000000 0.99404472113 0.00595536130
0.00000000000 0.99677187204 0.00322812865
0.00000000000 0.41255411506 0.58744585514
0.00000000000 0.99550616741 0.00449384237
0.00000000000 0.15972994268 0.84027004242
0.00000000000 0.99210828543 0.00789170060
0.00000000000 0.98136556149 0.01863447204
0.00000000000 0.97951734066 0.02048272267
0.00000000000 0.99744343758 0.00255657476
0.00000000000 0.99764508009 0.00235487451
1.00000000000 0.99422198534 0.00577798067
0.00000000000 0.99383598566 0.00616400689
0.00000000000 0.99678754807 0.00321249967
0.00000000000 0.99412411451 0.00587590225
1.00000000000 0.99263679981 0.00736320764
0.00000000000 0.01661468297 0.98338532448
0.00000000000 0.99664402008 0.00335598155
1.00000000000 0.00616570655 0.99383425713
0.00000000000 0.82989108562 0.17010886967
0.00000000000 0.86034214497 0.13965786994
0.00000000000 0.99282246828 0.00717754057
0.00000000000 0.99254310131 0.00745694386
0.00000000000 0.98076206446 0.01923792996
0.00000000000 0.93998408318 0.06001586467
0.00000000000 0.60484164953 0.39515832067
0.00000000000 0.98738259077 0.01261742041
0.00000000000 0.34283417463 0.65716588497
1.00000000000 0.01591797918 0.98408198357
0.00000000000 0.99748444557 0.00251551019
0.00000000000 0.77360421419 0.22639580071
0.00000000000 0.98847162724 0.01152843237
1.00000000000 0.98832952976 0.01167046558
0.00000000000 0.54083758593 0.45916241407
1.00000000000 0.35270881653 0.64729118347
0.00000000000 0.05854602531 0.94145393372
0.00000000000 0.99101078510 0.00898922514
0.00000000000 0.98689818382 0.01310177334
0.00000000000 0.99364519119 0.00635487214
