1.00000000000 0.49995681643 0.50004321337
1.00000000000 0.49995696545 0.50004303455
1.00000000000 0.49995681643 0.50004315376
1.00000000000 0.49995681643 0.50004321337
1.00000000000 0.49995690584 0.50004309416
1.00000000000 0.49995687604 0.50004315376
1.00000000000 0.49995693564 0.50004309416
1.00000000000 0.49995681643 0.50004321337
1.00000000000 0.49995690584 0.50004309416
1.00000000000 0.49995681643 0.50004315376
1.00000000000 0.49995681643 0.50004321337
1.00000000000 0.49995687604 0.50004315376
1.00000000000 0.49995687604 0.50004315376
1.00000000000 0.49995687604 0.50004315376
1.00000000000 0.49995687604 0.50004315376
1.00000000000 0.49995681643 0.50004321337
1.00000000000 0.49995687604 0.50004315376
1.00000000000 0.49995681643 0.50004321337
1.00000000000 0.49995681643 0.50004315376
1.00000000000 0.49995681643 0.50004321337
1.00000000000 0.49995681643 0.50004315376
1.00000000000 0.49995681643 0.50004321337
1.00000000000 0.49995681643 0.50004321337
1.00000000000 0.49995681643 0.50004321337
1.00000000000 0.49995681643 0.50004315376
1.00000000000 0.49995681643 0.50004321337
1.00000000000 0.49995681643 0.50004315376
1.00000000000 0.49995681643 0.50004315376
1.00000000000 0.49995687604 0.50004315376
1.00000000000 0.49995681643 0.50004315376
1.00000000000 0.49995687604 0.50004315376
1.00000000000 0.49995687604 0.50004315376
1.00000000000 0.49995681643 0.50004321337
1.00000000000 0.49995687604 0.50004315376
1.00000000000 0.49995687604 0.50004315376
1.00000000000 0.49995687604 0.50004315376
1.00000000000 0.49995690584 0.50004309416
1.00000000000 0.49995687604 0.50004315376
1.00000000000 0.49995681643 0.50004321337
1.00000000000 0.49995687604 0.50004315376
1.00000000000 0.49995681643 0.50004321337
1.00000000000 0.49995687604 0.50004315376
1.00000000000 0.49995681643 0.50004315376
1.00000000000 0.49995690584 0.50004309416
1.00000000000 0.49995687604 0.50004315376
1.00000000000 0.49995687604 0.50004315376
1.00000000000 0.49995681643 0.50004315376
1.00000000000 0.49995687604 0.50004315376
1.00000000000 0.49995687604 0.50004315376
1.00000000000 0.49995690584 0.50004309416
1.00000000000 0.49995681643 0.50004321337
1.00000000000 0.49995687604 0.50004315376
1.00000000000 0.49995681643 0.50004315376
1.00000000000 0.49995681643 0.50004315376
1.00000000000 0.49995681643 0.50004321337
1.00000000000 0.49995687604 0.50004315376
1.00000000000 0.49995690584 0.50004309416
1.00000000000 0.49995687604 0.50004315376
1.00000000000 0.49995681643 0.50004321337
1.00000000000 0.49995687604 0.50004315376
1.00000000000 0.49995681643 0.50004315376
1.00000000000 0.49995687604 0.50004315376
1.00000000000 0.49995681643 0.50004315376
1.00000000000 0.49995690584 0.50004309416
1.00000000000 0.49995693564 0.50004309416
1.00000000000 0.49995687604 0.50004315376
1.00000000000 0.49995681643 0.50004321337
1.00000000000 0.49995687604 0.50004315376
1.00000000000 0.49995687604 0.50004315376
1.00000000000 0.49995687604 0.50004315376
1.00000000000 0.49995687604 0.50004315376
1.00000000000 0.49995681643 0.50004315376
1.00000000000 0.49995681643 0.50004315376
1.00000000000 0.49995687604 0.50004315376
1.00000000000 0.49995681643 0.50004321337
1.00000000000 0.49995681643 0.50004321337
1.00000000000 0.49995681643 0.50004315376
1.00000000000 0.49995681643 0.50004321337
1.00000000000 0.49995681643 0.50004321337
1.00000000000 0.49995681643 0.50004321337
1.00000000000 0.49995687604 0.50004315376
1.00000000000 0.49995681643 0.50004321337
1.00000000000 0.49995681643 0.50004321337
1.00000000000 0.49995681643 0.50004321337
1.00000000000 0.49995681643 0.50004321337
1.00000000000 0.49995681643 0.50004321337
1.00000000000 0.49995681643 0.50004321337
1.00000000000 0.49995681643 0.50004321337
1.00000000000 0.49995687604 0.50004315376
1.00000000000 0.49995690584 0.50004309416
1.00000000000 0.49995681643 0.50004315376
1.00000000000 0.49995681643 0.50004321337
1.00000000000 0.49995681643 0.50004315376
1.00000000000 0.49995681643 0.50004315376
1.00000000000 0.49995681643 0.50004315376
1.00000000000 0.49995690584 0.50004309416
1.00000000000 0.49995687604 0.50004315376
1.00000000000 0.49995681643 0.50004315376
1.00000000000 0.49995681643 0.50004321337
1.00000000000 0.49995681643 0.50004321337
1.00000000000 0.49995690584 0.50004309416
1.00000000000 0.49995690584 0.50004309416
1.00000000000 0.49995681643 0.50004321337
1.00000000000 0.49995681643 0.50004315376
1.00000000000 0.49995681643 0.50004315376
1.00000000000 0.49995687604 0.50004315376
1.00000000000 0.49995681643 0.50004321337
1.00000000000 0.49995681643 0.50004321337
1.00000000000 0.49995681643 0.50004321337
1.00000000000 0.49995687604 0.50004315376
1.00000000000 0.49995681643 0.50004315376
1.00000000000 0.49995687604 0.50004315376
1.00000000000 0.49995681643 0.50004315376
1.00000000000 0.49995681643 0.50004315376
1.00000000000 0.49995681643 0.50004321337
1.00000000000 0.49995681643 0.50004321337
1.00000000000 0.49995681643 0.50004321337
1.00000000000 0.49995681643 0.50004315376
1.00000000000 0.49995690584 0.50004309416
1.00000000000 0.49995681643 0.50004315376
1.00000000000 0.49995681643 0.50004315376
1.00000000000 0.49995687604 0.50004315376
1.00000000000 0.49995687604 0.50004315376
1.00000000000 0.49995687604 0.50004315376
1.00000000000 0.49995681643 0.50004315376
1.00000000000 0.49995687604 0.50004315376
1.00000000000 0.49995681643 0.50004321337
1.00000000000 0.49995681643 0.50004315376
1.00000000000 0.49995681643 0.50004315376
1.00000000000 0.49995687604 0.50004315376
1.00000000000 0.49995681643 0.50004315376
1.00000000000 0.49995681643 0.50004315376
1.00000000000 0.49995681643 0.50004315376
1.00000000000 0.49995687604 0.50004315376
1.00000000000 0.49995690584 0.50004309416
1.00000000000 0.49995681643 0.50004321337
1.00000000000 0.49995687604 0.50004315376
1.00000000000 0.49995681643 0.50004321337
1.00000000000 0.49995681643 0.50004315376
1.00000000000 0.49995681643 0.50004315376
1.00000000000 0.49995687604 0.50004315376
1.00000000000 0.49995687604 0.50004315376
1.00000000000 0.49995687604 0.50004315376
1.00000000000 0.49995681643 0.50004321337
1.00000000000 0.49995681643 0.50004321337
1.00000000000 0.49995687604 0.50004315376
1.00000000000 0.49995681643 0.50004321337
1.00000000000 0.49995681643 0.50004315376
1.00000000000 0.49995687604 0.50004315376
1.00000000000 0.49995681643 0.50004315376
1.00000000000 0.49995681643 0.50004321337
1.00000000000 0.49995681643 0.50004321337
1.00000000000 0.49995690584 0.50004309416
1.00000000000 0.49995681643 0.50004321337
1.00000000000 0.49995681643 0.50004315376
1.00000000000 0.49995681643 0.50004315376
1.00000000000 0.49995687604 0.50004315376
1.00000000000 0.49995681643 0.50004321337
1.00000000000 0.49995681643 0.50004315376
1.00000000000 0.49995681643 0.50004315376
1.00000000000 0.49995681643 0.50004315376
1.00000000000 0.49995681643 0.50004321337
1.00000000000 0.49995687604 0.50004315376
1.00000000000 0.49995681643 0.50004315376
1.00000000000 0.49995681643 0.50004321337
1.00000000000 0.49995681643 0.50004321337
1.00000000000 0.49995687604 0.50004315376
1.00000000000 0.49995681643 0.50004315376
1.00000000000 0.49995690584 0.50004309416
1.00000000000 0.49995681643 0.50004321337
1.00000000000 0.49995681643 0.50004321337
1.00000000000 0.49995681643 0.50004321337
1.00000000000 0.49995687604 0.50004315376
1.00000000000 0.49995687604 0.50004315376
1.00000000000 0.49995681643 0.50004315376
1.00000000000 0.49995681643 0.50004315376
1.00000000000 0.49995681643 0.50004321337
1.00000000000 0.49995681643 0.50004321337
1.00000000000 0.49995681643 0.50004321337
1.00000000000 0.49995687604 0.50004315376
1.00000000000 0.49995681643 0.50004321337
1.00000000000 0.49995681643 0.50004321337
1.00000000000 0.49995687604 0.50004315376
1.00000000000 0.49995693564 0.50004309416
1.00000000000 0.49995687604 0.50004315376
1.00000000000 0.49995681643 0.50004315376
1.00000000000 0.49995687604 0.50004315376
1.00000000000 0.49995681643 0.50004321337
1.00000000000 0.49995687604 0.50004315376
1.00000000000 0.49995681643 0.50004315376
1.00000000000 0.49995687604 0.50004315376
1.00000000000 0.49995681643 0.50004321337
1.00000000000 0.49995681643 0.50004321337
1.00000000000 0.49995687604 0.50004315376
1.00000000000 0.49995681643 0.50004321337
1.00000000000 0.49995681643 0.50004315376
1.00000000000 0.49995681643 0.50004315376
1.00000000000 0.49995687604 0.50004315376
1.00000000000 0.49995681643 0.50004321337
1.00000000000 0.49995681643 0.50004321337
1.00000000000 0.49995681643 0.50004321337
1.00000000000 0.49995681643 0.50004315376
1.00000000000 0.49995681643 0.50004321337
1.00000000000 0.49995681643 0.50004315376
1.00000000000 0.49995687604 0.50004315376
1.00000000000 0.49995681643 0.50004315376
1.00000000000 0.49995690584 0.50004309416
1.00000000000 0.49995681643 0.50004315376
1.00000000000 0.49995687604 0.50004315376
1.00000000000 0.49995687604 0.50004315376
1.00000000000 0.49995687604 0.50004315376
1.00000000000 0.49995681643 0.50004321337
1.00000000000 0.49995681643 0.50004321337
1.00000000000 0.49995681643 0.50004321337
1.00000000000 0.49995687604 0.50004315376
1.00000000000 0.49995687604 0.50004315376
1.00000000000 0.49995681643 0.50004321337
1.00000000000 0.49995681643 0.50004315376
1.00000000000 0.49995681643 0.50004315376
1.00000000000 0.49995681643 0.50004321337
1.00000000000 0.49995687604 0.50004315376
1.00000000000 0.49995681643 0.50004321337
1.00000000000 0.49995681643 0.50004321337
1.00000000000 0.49995681643 0.50004315376
1.00000000000 0.49995681643 0.50004315376
1.00000000000 0.49995681643 0.50004321337
1.00000000000 0.49995687604 0.50004315376
1.00000000000 0.49995687604 0.50004315376
1.00000000000 0.49995681643 0.50004315376
1.00000000000 0.49995681643 0.50004315376
1.00000000000 0.49995681643 0.50004321337
1.00000000000 0.49995681643 0.50004321337
1.00000000000 0.49995687604 0.50004315376
1.00000000000 0.49995681643 0.50004321337
1.00000000000 0.49995687604 0.50004315376
1.00000000000 0.49995687604 0.50004315376
1.00000000000 0.49995687604 0.50004315376
1.00000000000 0.49995681643 0.50004321337
1.00000000000 0.49995681643 0.50004315376
1.00000000000 0.49995681643 0.50004321337
1.00000000000 0.49995681643 0.50004315376
1.00000000000 0.49995681643 0.50004315376
1.00000000000 0.49995681643 0.50004315376
1.00000000000 0.49995681643 0.50004321337
1.00000000000 0.49995681643 0.50004315376
1.00000000000 0.49995681643 0.50004321337
1.00000000000 0.49995681643 0.50004315376
1.00000000000 0.49995681643 0.50004315376
1.00000000000 0.49995681643 0.50004315376
1.00000000000 0.49995681643 0.50004321337
1.00000000000 0.49995681643 0.50004321337
1.00000000000 0.49995681643 0.50004321337
1.00000000000 0.49995687604 0.50004315376
1.00000000000 0.49995681643 0.50004321337
1.00000000000 0.49995681643 0.50004321337
1.00000000000 0.49995681643 0.50004315376
1.00000000000 0.49995687604 0.50004315376
1.00000000000 0.49995687604 0.50004315376
1.00000000000 0.49995681643 0.50004315376
1.00000000000 0.49995681643 0.50004321337
1.00000000000 0.49995681643 0.50004315376
1.00000000000 0.49995681643 0.50004315376
1.00000000000 0.49995681643 0.50004321337
1.00000000000 0.49995681643 0.50004315376
1.00000000000 0.49995681643 0.50004321337
1.00000000000 0.49995681643 0.50004315376
1.00000000000 0.49995681643 0.50004321337
1.00000000000 0.49995681643 0.50004321337
1.00000000000 0.49995681643 0.50004315376
1.00000000000 0.49995681643 0.50004315376
1.00000000000 0.49995681643 0.50004321337
1.00000000000 0.49995681643 0.50004321337
1.00000000000 0.49995681643 0.50004321337
1.00000000000 0.49995681643 0.50004321337
1.00000000000 0.49995690584 0.50004309416
1.00000000000 0.49995681643 0.50004321337
1.00000000000 0.49995681643 0.50004321337
1.00000000000 0.49995681643 0.50004315376
1.00000000000 0.49995687604 0.50004315376
1.00000000000 0.49995681643 0.50004321337
1.00000000000 0.49995681643 0.50004315376
1.00000000000 0.49995687604 0.50004315376
1.00000000000 0.49995681643 0.50004321337
1.00000000000 0.49995681643 0.50004315376
1.00000000000 0.49995681643 0.50004315376
1.00000000000 0.49995681643 0.50004315376
1.00000000000 0.49995681643 0.50004321337
1.00000000000 0.49995687604 0.50004315376
1.00000000000 0.49995687604 0.50004315376
1.00000000000 0.49995681643 0.50004315376
1.00000000000 0.49995687604 0.50004315376
1.00000000000 0.49995687604 0.50004315376
1.00000000000 0.49995681643 0.50004321337
1.00000000000 0.49995681643 0.50004321337
1.00000000000 0.49995681643 0.50004321337
1.00000000000 0.49995687604 0.50004315376
1.00000000000 0.49995690584 0.50004309416
1.00000000000 0.49995681643 0.50004321337
1.00000000000 0.49995690584 0.50004309416
1.00000000000 0.49995681643 0.50004315376
1.00000000000 0.49995687604 0.50004315376
1.00000000000 0.49995687604 0.50004315376
1.00000000000 0.49995681643 0.50004321337
1.00000000000 0.49995681643 0.50004315376
1.00000000000 0.49995681643 0.50004315376
1.00000000000 0.49995681643 0.50004321337
1.00000000000 0.49995687604 0.50004315376
1.00000000000 0.49995690584 0.50004309416
1.00000000000 0.49995681643 0.50004315376
1.00000000000 0.49995687604 0.50004315376
1.00000000000 0.49995681643 0.50004321337
1.00000000000 0.49995681643 0.50004315376
1.00000000000 0.49995687604 0.50004315376
1.00000000000 0.49995681643 0.50004321337
1.00000000000 0.49995681643 0.50004321337
1.00000000000 0.49995681643 0.50004321337
1.00000000000 0.49995681643 0.50004321337
1.00000000000 0.49995687604 0.50004315376
1.00000000000 0.49995687604 0.50004315376
1.00000000000 0.49995681643 0.50004315376
1.00000000000 0.49995681643 0.50004315376
1.00000000000 0.49995681643 0.50004321337
1.00000000000 0.49995681643 0.50004321337
1.00000000000 0.49995681643 0.50004321337
1.00000000000 0.49995681643 0.50004315376
1.00000000000 0.49995681643 0.50004315376
1.00000000000 0.49995681643 0.50004315376
1.00000000000 0.49995681643 0.50004315376
1.00000000000 0.49995687604 0.50004315376
1.00000000000 0.49995687604 0.50004315376
1.00000000000 0.49995681643 0.50004315376
1.00000000000 0.49995681643 0.50004321337
1.00000000000 0.49995690584 0.50004309416
1.00000000000 0.49995687604 0.50004315376
1.00000000000 0.49995681643 0.50004315376
1.00000000000 0.49995681643 0.50004321337
1.00000000000 0.49995681643 0.50004315376
1.00000000000 0.49995681643 0.50004315376
1.00000000000 0.49995687604 0.50004315376
1.00000000000 0.49995681643 0.50004315376
1.00000000000 0.49995681643 0.50004315376
1.00000000000 0.49995681643 0.50004321337
1.00000000000 0.49995693564 0.50004309416
1.00000000000 0.49995681643 0.50004315376
1.00000000000 0.49995681643 0.50004321337
1.00000000000 0.49995681643 0.50004315376
1.00000000000 0.49995681643 0.50004315376
1.00000000000 0.49995681643 0.50004315376
1.00000000000 0.49995687604 0.50004315376
1.00000000000 0.49995681643 0.50004315376
1.00000000000 0.49995681643 0.50004321337
1.00000000000 0.49995687604 0.50004315376
1.00000000000 0.49995681643 0.50004315376
1.00000000000 0.49995687604 0.50004315376
1.00000000000 0.49995690584 0.50004309416
1.00000000000 0.49995687604 0.50004315376
1.00000000000 0.49995687604 0.50004315376
1.00000000000 0.49995681643 0.50004315376
1.00000000000 0.49995681643 0.50004321337
1.00000000000 0.49995681643 0.50004315376
1.00000000000 0.49995687604 0.50004315376
1.00000000000 0.49995681643 0.50004315376
1.00000000000 0.49995681643 0.50004321337
1.00000000000 0.49995681643 0.50004321337
1.00000000000 0.49995687604 0.50004315376
1.00000000000 0.49995687604 0.50004315376
1.00000000000 0.49995687604 0.50004315376
1.00000000000 0.49995681643 0.50004321337
1.00000000000 0.49995687604 0.50004315376
1.00000000000 0.49995681643 0.50004321337
1.00000000000 0.49995681643 0.50004321337
1.00000000000 0.49995681643 0.50004321337
1.00000000000 0.49995681643 0.50004315376
1.00000000000 0.49995687604 0.50004315376
1.00000000000 0.49995681643 0.50004315376
1.00000000000 0.49995687604 0.50004315376
1.00000000000 0.49995687604 0.50004315376
1.00000000000 0.49995681643 0.50004315376
1.00000000000 0.49995681643 0.50004321337
1.00000000000 0.49995681643 0.50004315376
1.00000000000 0.49995681643 0.50004315376
1.00000000000 0.49995690584 0.50004309416
1.00000000000 0.49995687604 0.50004315376
1.00000000000 0.49995687604 0.50004315376
1.00000000000 0.49995681643 0.50004321337
1.00000000000 0.49995681643 0.50004321337
1.00000000000 0.49995681643 0.50004321337
1.00000000000 0.49995687604 0.50004315376
1.00000000000 0.49995681643 0.50004315376
1.00000000000 0.49995681643 0.50004321337
1.00000000000 0.49995690584 0.50004309416
1.00000000000 0.49995687604 0.50004315376
1.00000000000 0.49995681643 0.50004315376
1.00000000000 0.49995681643 0.50004321337
1.00000000000 0.49995681643 0.50004315376
1.00000000000 0.49995687604 0.50004315376
1.00000000000 0.49995681643 0.50004315376
1.00000000000 0.49995681643 0.50004315376
1.00000000000 0.49995681643 0.50004315376
1.00000000000 0.49995681643 0.50004321337
1.00000000000 0.49995681643 0.50004315376
1.00000000000 0.49995681643 0.50004315376
1.00000000000 0.49995681643 0.50004321337
1.00000000000 0.49995687604 0.50004315376
1.00000000000 0.49995681643 0.50004321337
1.00000000000 0.49995681643 0.50004321337
1.00000000000 0.49995681643 0.50004321337
1.00000000000 0.49995681643 0.50004321337
1.00000000000 0.49995687604 0.50004315376
1.00000000000 0.49995681643 0.50004321337
1.00000000000 0.49995681643 0.50004315376
1.00000000000 0.49995681643 0.50004321337
1.00000000000 0.49995681643 0.50004315376
1.00000000000 0.49995681643 0.50004315376
1.00000000000 0.49995681643 0.50004321337
1.00000000000 0.49995681643 0.50004321337
1.00000000000 0.49995681643 0.50004315376
1.00000000000 0.49995681643 0.50004321337
1.00000000000 0.49995681643 0.50004321337
1.00000000000 0.49995681643 0.50004315376
1.00000000000 0.49995681643 0.50004315376
1.00000000000 0.49995681643 0.50004321337
1.00000000000 0.49995681643 0.50004315376
1.00000000000 0.49995687604 0.50004315376
1.00000000000 0.49995681643 0.50004321337
1.00000000000 0.49995681643 0.50004321337
1.00000000000 0.49995690584 0.50004309416
1.00000000000 0.49995681643 0.50004315376
1.00000000000 0.49995681643 0.50004315376
1.00000000000 0.49995687604 0.50004315376
1.00000000000 0.49995681643 0.50004321337
1.00000000000 0.49995687604 0.50004315376
1.00000000000 0.49995681643 0.50004321337
1.00000000000 0.49995687604 0.50004315376
1.00000000000 0.49995687604 0.50004315376
1.00000000000 0.49995681643 0.50004321337
1.00000000000 0.49995681643 0.50004321337
1.00000000000 0.49995681643 0.50004315376
1.00000000000 0.49995690584 0.50004309416
1.00000000000 0.49995681643 0.50004321337
1.00000000000 0.49995681643 0.50004321337
1.00000000000 0.49995687604 0.50004315376
1.00000000000 0.49995681643 0.50004315376
1.00000000000 0.49995681643 0.50004321337
1.00000000000 0.49995681643 0.50004321337
1.00000000000 0.49995681643 0.50004321337
1.00000000000 0.49995681643 0.50004321337
1.00000000000 0.49995681643 0.50004315376
1.00000000000 0.49995681643 0.50004321337
1.00000000000 0.49995681643 0.50004321337
1.00000000000 0.49995681643 0.50004315376
1.00000000000 0.49995687604 0.50004315376
1.00000000000 0.49995681643 0.50004321337
1.00000000000 0.49995687604 0.50004315376
1.00000000000 0.49995681643 0.50004321337
1.00000000000 0.49995681643 0.50004321337
1.00000000000 0.49995681643 0.50004315376
1.00000000000 0.49995681643 0.50004321337
1.00000000000 0.49995681643 0.50004321337
1.00000000000 0.49995681643 0.50004321337
1.00000000000 0.49995681643 0.50004315376
1.00000000000 0.49995681643 0.50004321337
1.00000000000 0.49995681643 0.50004321337
1.00000000000 0.49995681643 0.50004315376
1.00000000000 0.49995687604 0.50004315376
1.00000000000 0.49995681643 0.50004321337
1.00000000000 0.49995687604 0.50004315376
1.00000000000 0.49995681643 0.50004321337
1.00000000000 0.49995681643 0.50004321337
1.00000000000 0.49995681643 0.50004321337
1.00000000000 0.49995681643 0.50004321337
1.00000000000 0.49995681643 0.50004321337
1.00000000000 0.49995687604 0.50004315376
1.00000000000 0.49995681643 0.50004315376
1.00000000000 0.49995681643 0.50004315376
1.00000000000 0.49995681643 0.50004315376
1.00000000000 0.49995681643 0.50004321337
1.00000000000 0.49995681643 0.50004321337
1.00000000000 0.49995681643 0.50004321337
1.00000000000 0.49995687604 0.50004315376
1.00000000000 0.49995690584 0.50004309416
1.00000000000 0.49995681643 0.50004321337
1.00000000000 0.49995690584 0.50004309416
1.00000000000 0.49995687604 0.50004315376
1.00000000000 0.49995693564 0.50004309416
1.00000000000 0.49995681643 0.50004315376
1.00000000000 0.49995681643 0.50004315376
1.00000000000 0.49995675683 0.50004321337
1.00000000000 0.49995681643 0.50004315376
1.00000000000 0.49995681643 0.50004321337
1.00000000000 0.49995681643 0.50004321337
1.00000000000 0.49995681643 0.50004321337
1.00000000000 0.49995687604 0.50004315376
1.00000000000 0.49995681643 0.50004321337
1.00000000000 0.49995687604 0.50004315376
1.00000000000 0.49995681643 0.50004315376
1.00000000000 0.49995687604 0.50004315376
1.00000000000 0.49995681643 0.50004315376
1.00000000000 0.49995681643 0.50004315376
1.00000000000 0.49995687604 0.50004315376
1.00000000000 0.49995681643 0.50004321337
1.00000000000 0.49995681643 0.50004321337
1.00000000000 0.49995681643 0.50004321337
1.00000000000 0.49995681643 0.50004321337
1.00000000000 0.49995681643 0.50004321337
1.00000000000 0.49995681643 0.50004315376
1.00000000000 0.49995687604 0.50004315376
1.00000000000 0.49995681643 0.50004315376
1.00000000000 0.49995681643 0.50004315376
1.00000000000 0.49995681643 0.50004315376
1.00000000000 0.49995687604 0.50004315376
1.00000000000 0.49995687604 0.50004315376
1.00000000000 0.49995681643 0.50004315376
1.00000000000 0.49995690584 0.50004309416
1.00000000000 0.49995681643 0.50004315376
1.00000000000 0.49995681643 0.50004321337
1.00000000000 0.49995690584 0.50004309416
1.00000000000 0.49995681643 0.50004321337
1.00000000000 0.49995681643 0.50004321337
1.00000000000 0.49995681643 0.50004321337
1.00000000000 0.49995681643 0.50004315376
1.00000000000 0.49995687604 0.50004315376
1.00000000000 0.49995681643 0.50004315376
1.00000000000 0.49995681643 0.50004321337
1.00000000000 0.49995681643 0.50004315376
1.00000000000 0.49995690584 0.50004309416
1.00000000000 0.49995687604 0.50004315376
1.00000000000 0.49995681643 0.50004315376
1.00000000000 0.49995681643 0.50004315376
1.00000000000 0.49995681643 0.50004315376
1.00000000000 0.49995681643 0.50004315376
1.00000000000 0.49995681643 0.50004321337
1.00000000000 0.49995681643 0.50004315376
1.00000000000 0.49995681643 0.50004321337
1.00000000000 0.49995681643 0.50004315376
1.00000000000 0.49995681643 0.50004321337
1.00000000000 0.49995681643 0.50004321337
1.00000000000 0.49995681643 0.50004315376
1.00000000000 0.49995681643 0.50004321337
1.00000000000 0.49995690584 0.50004309416
1.00000000000 0.49995690584 0.50004309416
1.00000000000 0.49995681643 0.50004321337
1.00000000000 0.49995687604 0.50004315376
1.00000000000 0.49995681643 0.50004321337
1.00000000000 0.49995681643 0.50004321337
1.00000000000 0.49995681643 0.50004321337
1.00000000000 0.49995687604 0.50004315376
1.00000000000 0.49995681643 0.50004321337
1.00000000000 0.49995681643 0.50004315376
1.00000000000 0.49995681643 0.50004315376
1.00000000000 0.49995681643 0.50004315376
1.00000000000 0.49995687604 0.50004315376
1.00000000000 0.49995681643 0.50004321337
1.00000000000 0.49995681643 0.50004321337
1.00000000000 0.49995681643 0.50004321337
1.00000000000 0.49995681643 0.50004321337
1.00000000000 0.49995681643 0.50004321337
1.00000000000 0.49995687604 0.50004315376
1.00000000000 0.49995681643 0.50004321337
1.00000000000 0.49995681643 0.50004321337
1.00000000000 0.49995681643 0.50004321337
1.00000000000 0.49995681643 0.50004321337
1.00000000000 0.49995681643 0.50004321337
1.00000000000 0.49995693564 0.50004309416
1.00000000000 0.49995681643 0.50004321337
1.00000000000 0.49995690584 0.50004309416
1.00000000000 0.49995687604 0.50004315376
1.00000000000 0.49995681643 0.50004321337
1.00000000000 0.49995681643 0.50004321337
1.00000000000 0.49995681643 0.50004315376
1.00000000000 0.49995687604 0.50004315376
1.00000000000 0.49995687604 0.50004315376
1.00000000000 0.49995681643 0.50004321337
1.00000000000 0.49995681643 0.50004315376
1.00000000000 0.49995681643 0.50004321337
1.00000000000 0.49995681643 0.50004315376
1.00000000000 0.49995681643 0.50004321337
1.00000000000 0.49995687604 0.50004315376
1.00000000000 0.49995681643 0.50004321337
1.00000000000 0.49995681643 0.50004315376
1.00000000000 0.49995681643 0.50004315376
1.00000000000 0.49995681643 0.50004321337
1.00000000000 0.49995681643 0.50004315376
1.00000000000 0.49995681643 0.50004321337
1.00000000000 0.49995681643 0.50004321337
1.00000000000 0.49995687604 0.50004315376
1.00000000000 0.49995681643 0.50004315376
1.00000000000 0.49995681643 0.50004315376
1.00000000000 0.49995681643 0.50004315376
1.00000000000 0.49995681643 0.50004321337
1.00000000000 0.49995681643 0.50004321337
1.00000000000 0.49995687604 0.50004315376
1.00000000000 0.49995687604 0.50004315376
1.00000000000 0.49995681643 0.50004321337
1.00000000000 0.49995681643 0.50004315376
1.00000000000 0.49995687604 0.50004315376
1.00000000000 0.49995681643 0.50004321337
1.00000000000 0.49995681643 0.50004315376
1.00000000000 0.49995681643 0.50004321337
1.00000000000 0.49995687604 0.50004315376
1.00000000000 0.49995681643 0.50004321337
1.00000000000 0.49995681643 0.50004315376
1.00000000000 0.49995681643 0.50004315376
1.00000000000 0.49995681643 0.50004315376
1.00000000000 0.49995687604 0.50004315376
1.00000000000 0.49995681643 0.50004321337
1.00000000000 0.49995687604 0.50004315376
1.00000000000 0.49995687604 0.50004315376
1.00000000000 0.49995681643 0.50004315376
1.00000000000 0.49995681643 0.50004321337
1.00000000000 0.49995681643 0.50004321337
1.00000000000 0.49995681643 0.50004315376
1.00000000000 0.49995687604 0.50004315376
1.00000000000 0.49995681643 0.50004315376
1.00000000000 0.49995687604 0.50004315376
1.00000000000 0.49995681643 0.50004321337
1.00000000000 0.49995681643 0.50004321337
1.00000000000 0.49995681643 0.50004315376
1.00000000000 0.49995681643 0.50004321337
1.00000000000 0.49995687604 0.50004315376
1.00000000000 0.49995687604 0.50004315376
1.00000000000 0.49995681643 0.50004315376
1.00000000000 0.49995681643 0.50004315376
1.00000000000 0.49995681643 0.50004321337
1.00000000000 0.49995693564 0.50004309416
1.00000000000 0.49995687604 0.50004315376
1.00000000000 0.49995681643 0.50004315376
1.00000000000 0.49995687604 0.50004315376
1.00000000000 0.49995681643 0.50004315376
1.00000000000 0.49995681643 0.50004321337
1.00000000000 0.49995681643 0.50004321337
1.00000000000 0.49995681643 0.50004321337
1.00000000000 0.49995690584 0.50004309416
1.00000000000 0.49995687604 0.50004315376
1.00000000000 0.49995681643 0.50004321337
1.00000000000 0.49995687604 0.50004315376
1.00000000000 0.49995681643 0.50004315376
1.00000000000 0.49995681643 0.50004315376
1.00000000000 0.49995681643 0.50004321337
1.00000000000 0.49995687604 0.50004315376
1.00000000000 0.49995693564 0.50004309416
1.00000000000 0.49995681643 0.50004315376
1.00000000000 0.49995687604 0.50004315376
1.00000000000 0.49995681643 0.50004315376
1.00000000000 0.49995681643 0.50004321337
1.00000000000 0.49995681643 0.50004315376
1.00000000000 0.49995681643 0.50004315376
1.00000000000 0.49995681643 0.50004315376
1.00000000000 0.49995681643 0.50004315376
1.00000000000 0.49995687604 0.50004315376
1.00000000000 0.49995687604 0.50004315376
1.00000000000 0.49995687604 0.50004315376
1.00000000000 0.49995681643 0.50004315376
1.00000000000 0.49995687604 0.50004315376
1.00000000000 0.49995681643 0.50004321337
1.00000000000 0.49995681643 0.50004321337
1.00000000000 0.49995681643 0.50004315376
1.00000000000 0.49995681643 0.50004321337
1.00000000000 0.49995681643 0.50004321337
1.00000000000 0.49995681643 0.50004315376
1.00000000000 0.49995687604 0.50004315376
1.00000000000 0.49995690584 0.50004309416
1.00000000000 0.49995687604 0.50004315376
1.00000000000 0.49995681643 0.50004315376
1.00000000000 0.49995687604 0.50004315376
1.00000000000 0.49995687604 0.50004315376
1.00000000000 0.49995681643 0.50004321337
1.00000000000 0.49995687604 0.50004315376
1.00000000000 0.49995681643 0.50004321337
1.00000000000 0.49995681643 0.50004321337
1.00000000000 0.49995687604 0.50004315376
1.00000000000 0.49995687604 0.50004315376
1.00000000000 0.49995687604 0.50004315376
1.00000000000 0.49995681643 0.50004315376
1.00000000000 0.49995687604 0.50004315376
1.00000000000 0.49995687604 0.50004315376
1.00000000000 0.49995681643 0.50004321337
1.00000000000 0.49995687604 0.50004315376
1.00000000000 0.49995687604 0.50004315376
1.00000000000 0.49995681643 0.50004321337
1.00000000000 0.49995681643 0.50004315376
1.00000000000 0.49995690584 0.50004309416
1.00000000000 0.49995681643 0.50004315376
1.00000000000 0.49995681643 0.50004321337
1.00000000000 0.49995681643 0.50004321337
1.00000000000 0.49995681643 0.50004321337
1.00000000000 0.49995681643 0.50004321337
1.00000000000 0.49995687604 0.50004315376
1.00000000000 0.49995681643 0.50004321337
1.00000000000 0.49995687604 0.50004315376
1.00000000000 0.49995681643 0.50004315376
1.00000000000 0.49995681643 0.50004315376
1.00000000000 0.49995681643 0.50004321337
1.00000000000 0.49995681643 0.50004315376
1.00000000000 0.49995687604 0.50004315376
1.00000000000 0.49995681643 0.50004321337
1.00000000000 0.49995681643 0.50004321337
1.00000000000 0.49995681643 0.50004315376
1.00000000000 0.49995681643 0.50004321337
1.00000000000 0.49995681643 0.50004315376
1.00000000000 0.49995687604 0.50004315376
1.00000000000 0.49995687604 0.50004315376
1.00000000000 0.49995681643 0.50004315376
1.00000000000 0.49995687604 0.50004315376
1.00000000000 0.49995681643 0.50004315376
1.00000000000 0.49995681643 0.50004315376
1.00000000000 0.49995681643 0.50004315376
1.00000000000 0.49995687604 0.50004315376
1.00000000000 0.49995681643 0.50004321337
1.00000000000 0.49995681643 0.50004321337
1.00000000000 0.49995681643 0.50004321337
1.00000000000 0.49995681643 0.50004321337
1.00000000000 0.49995687604 0.50004315376
1.00000000000 0.49995681643 0.50004315376
1.00000000000 0.49995681643 0.50004315376
1.00000000000 0.49995681643 0.50004321337
1.00000000000 0.49995681643 0.50004321337
1.00000000000 0.49995681643 0.50004315376
1.00000000000 0.49995681643 0.50004315376
1.00000000000 0.49995681643 0.50004315376
1.00000000000 0.49995687604 0.50004315376
1.00000000000 0.49995681643 0.50004315376
1.00000000000 0.49995681643 0.50004321337
1.00000000000 0.49995681643 0.50004315376
1.00000000000 0.49995681643 0.50004315376
1.00000000000 0.49995681643 0.50004321337
1.00000000000 0.49995681643 0.50004321337
1.00000000000 0.49995681643 0.50004315376
1.00000000000 0.49995681643 0.50004321337
1.00000000000 0.49995681643 0.50004321337
1.00000000000 0.49995681643 0.50004321337
1.00000000000 0.49995687604 0.50004315376
1.00000000000 0.49995681643 0.50004315376
1.00000000000 0.49995681643 0.50004321337
1.00000000000 0.49995681643 0.50004315376
1.00000000000 0.49995687604 0.50004315376
1.00000000000 0.49995681643 0.50004321337
1.00000000000 0.49995681643 0.50004315376
1.00000000000 0.49995681643 0.50004321337
1.00000000000 0.49995681643 0.50004321337
1.00000000000 0.49995681643 0.50004315376
1.00000000000 0.49995681643 0.50004321337
1.00000000000 0.49995681643 0.50004315376
1.00000000000 0.49995681643 0.50004321337
1.00000000000 0.49995687604 0.50004315376
1.00000000000 0.49995681643 0.50004321337
1.00000000000 0.49995681643 0.50004315376
1.00000000000 0.49995681643 0.50004321337
1.00000000000 0.49995681643 0.50004321337
1.00000000000 0.49995681643 0.50004321337
1.00000000000 0.49995681643 0.50004315376
1.00000000000 0.49995687604 0.50004315376
1.00000000000 0.49995687604 0.50004315376
1.00000000000 0.49995687604 0.50004315376
1.00000000000 0.49995681643 0.50004315376
1.00000000000 0.49995681643 0.50004321337
1.00000000000 0.49995687604 0.50004315376
1.00000000000 0.49995687604 0.50004315376
1.00000000000 0.49995681643 0.50004321337
1.00000000000 0.49995681643 0.50004321337
1.00000000000 0.49995681643 0.50004321337
1.00000000000 0.49995687604 0.50004315376
1.00000000000 0.49995687604 0.50004315376
1.00000000000 0.49995687604 0.50004315376
1.00000000000 0.49995687604 0.50004315376
1.00000000000 0.49995681643 0.50004321337
1.00000000000 0.49995681643 0.50004315376
1.00000000000 0.49995687604 0.50004315376
1.00000000000 0.49995693564 0.50004309416
1.00000000000 0.49995690584 0.50004309416
1.00000000000 0.49995687604 0.50004315376
1.00000000000 0.49995681643 0.50004315376
1.00000000000 0.49995681643 0.50004315376
1.00000000000 0.49995681643 0.50004315376
1.00000000000 0.49995681643 0.50004321337
1.00000000000 0.49995690584 0.50004309416
1.00000000000 0.49995681643 0.50004315376
1.00000000000 0.49995690584 0.50004309416
1.00000000000 0.49995687604 0.50004315376
1.00000000000 0.49995681643 0.50004321337
1.00000000000 0.49995681643 0.50004321337
1.00000000000 0.49995681643 0.50004321337
1.00000000000 0.49995681643 0.50004321337
1.00000000000 0.49995681643 0.50004321337
1.00000000000 0.49995681643 0.50004315376
1.00000000000 0.49995681643 0.50004321337
1.00000000000 0.49995687604 0.50004315376
1.00000000000 0.49995681643 0.50004321337
1.00000000000 0.49995687604 0.50004315376
1.00000000000 0.49995687604 0.50004315376
1.00000000000 0.49995687604 0.50004315376
1.00000000000 0.49995687604 0.50004315376
1.00000000000 0.49995690584 0.50004309416
1.00000000000 0.49995681643 0.50004321337
1.00000000000 0.49995687604 0.50004315376
1.00000000000 0.49995681643 0.50004315376
1.00000000000 0.49995681643 0.50004315376
1.00000000000 0.49995681643 0.50004315376
1.00000000000 0.49995681643 0.50004321337
1.00000000000 0.49995681643 0.50004315376
1.00000000000 0.49995681643 0.50004315376
1.00000000000 0.49995681643 0.50004321337
1.00000000000 0.49995687604 0.50004315376
1.00000000000 0.49995687604 0.50004315376
1.00000000000 0.49995681643 0.50004315376
1.00000000000 0.49995687604 0.50004315376
1.00000000000 0.49995690584 0.50004309416
1.00000000000 0.49995687604 0.50004315376
1.00000000000 0.49995687604 0.50004315376
1.00000000000 0.49995687604 0.50004315376
1.00000000000 0.49995687604 0.50004315376
1.00000000000 0.49995687604 0.50004315376
1.00000000000 0.49995687604 0.50004315376
1.00000000000 0.49995681643 0.50004315376
1.00000000000 0.49995681643 0.50004321337
1.00000000000 0.49995681643 0.50004315376
1.00000000000 0.49995687604 0.50004315376
1.00000000000 0.49995681643 0.50004321337
1.00000000000 0.49995690584 0.50004309416
1.00000000000 0.49995681643 0.50004321337
1.00000000000 0.49995681643 0.50004315376
1.00000000000 0.49995681643 0.50004321337
1.00000000000 0.49995681643 0.50004315376
1.00000000000 0.49995681643 0.50004315376
1.00000000000 0.49995687604 0.50004315376
1.00000000000 0.49995687604 0.50004315376
1.00000000000 0.49995681643 0.50004321337
1.00000000000 0.49995681643 0.50004315376
1.00000000000 0.49995687604 0.50004315376
1.00000000000 0.49995681643 0.50004321337
1.00000000000 0.49995681643 0.50004315376
1.00000000000 0.49995681643 0.50004315376
1.00000000000 0.49995687604 0.50004315376
1.00000000000 0.49995690584 0.50004309416
1.00000000000 0.49995681643 0.50004321337
1.00000000000 0.49995687604 0.50004315376
1.00000000000 0.49995681643 0.50004315376
1.00000000000 0.49995681643 0.50004315376
1.00000000000 0.49995681643 0.50004315376
1.00000000000 0.49995687604 0.50004315376
1.00000000000 0.49995681643 0.50004321337
1.00000000000 0.49995687604 0.50004315376
1.00000000000 0.49995690584 0.50004309416
1.00000000000 0.49995681643 0.50004321337
1.00000000000 0.49995690584 0.50004309416
1.00000000000 0.49995687604 0.50004315376
1.00000000000 0.49995681643 0.50004321337
1.00000000000 0.49995681643 0.50004321337
1.00000000000 0.49995681643 0.50004321337
1.00000000000 0.49995681643 0.50004321337
1.00000000000 0.49995681643 0.50004315376
1.00000000000 0.49995681643 0.50004321337
1.00000000000 0.49995681643 0.50004321337
1.00000000000 0.49995681643 0.50004321337
1.00000000000 0.49995681643 0.50004315376
1.00000000000 0.49995681643 0.50004315376
1.00000000000 0.49995681643 0.50004315376
1.00000000000 0.49995681643 0.50004321337
1.00000000000 0.49995681643 0.50004321337
1.00000000000 0.49995681643 0.50004321337
1.00000000000 0.49995681643 0.50004321337
1.00000000000 0.49995681643 0.50004315376
1.00000000000 0.49995687604 0.50004315376
1.00000000000 0.49995681643 0.50004315376
1.00000000000 0.49995687604 0.50004315376
1.00000000000 0.49995681643 0.50004315376
1.00000000000 0.49995690584 0.50004309416
1.00000000000 0.49995681643 0.50004315376
1.00000000000 0.49995681643 0.50004315376
1.00000000000 0.49995681643 0.50004315376
1.00000000000 0.49995681643 0.50004321337
1.00000000000 0.49995681643 0.50004315376
1.00000000000 0.49995681643 0.50004315376
1.00000000000 0.49995681643 0.50004315376
1.00000000000 0.49995690584 0.50004309416
1.00000000000 0.49995681643 0.50004315376
1.00000000000 0.49995681643 0.50004315376
1.00000000000 0.49995687604 0.50004315376
1.00000000000 0.49995681643 0.50004315376
1.00000000000 0.49995690584 0.50004309416
1.00000000000 0.49995687604 0.50004315376
1.00000000000 0.49995681643 0.50004321337
1.00000000000 0.49995681643 0.50004315376
1.00000000000 0.49995681643 0.50004321337
1.00000000000 0.49995681643 0.50004315376
1.00000000000 0.49995681643 0.50004321337
1.00000000000 0.49995681643 0.50004315376
1.00000000000 0.49995690584 0.50004309416
1.00000000000 0.49995681643 0.50004321337
1.00000000000 0.49995681643 0.50004321337
1.00000000000 0.49995681643 0.50004315376
1.00000000000 0.49995681643 0.50004315376
1.00000000000 0.49995681643 0.50004315376
1.00000000000 0.49995681643 0.50004315376
1.00000000000 0.49995681643 0.50004315376
1.00000000000 0.49995681643 0.50004321337
1.00000000000 0.49995687604 0.50004315376
1.00000000000 0.49995681643 0.50004321337
1.00000000000 0.49995681643 0.50004315376
1.00000000000 0.49995687604 0.50004315376
1.00000000000 0.49995681643 0.50004321337
1.00000000000 0.49995687604 0.50004315376
1.00000000000 0.49995681643 0.50004321337
1.00000000000 0.49995681643 0.50004315376
1.00000000000 0.49995681643 0.50004315376
1.00000000000 0.49995681643 0.50004315376
1.00000000000 0.49995681643 0.50004315376
1.00000000000 0.49995681643 0.50004315376
1.00000000000 0.49995681643 0.50004315376
1.00000000000 0.49995681643 0.50004321337
1.00000000000 0.49995681643 0.50004321337
1.00000000000 0.49995681643 0.50004315376
1.00000000000 0.49995681643 0.50004321337
1.00000000000 0.49995681643 0.50004315376
1.00000000000 0.49995681643 0.50004321337
1.00000000000 0.49995687604 0.50004315376
1.00000000000 0.49995681643 0.50004321337
1.00000000000 0.49995681643 0.50004315376
1.00000000000 0.49995681643 0.50004315376
1.00000000000 0.49995687604 0.50004315376
1.00000000000 0.49995681643 0.50004315376
1.00000000000 0.49995681643 0.50004321337
1.00000000000 0.49995681643 0.50004315376
1.00000000000 0.49995681643 0.50004315376
1.00000000000 0.49995687604 0.50004315376
1.00000000000 0.49995681643 0.50004315376
1.00000000000 0.49995681643 0.50004321337
1.00000000000 0.49995681643 0.50004315376
1.00000000000 0.49995681643 0.50004315376
1.00000000000 0.49995681643 0.50004321337
1.00000000000 0.49995681643 0.50004315376
1.00000000000 0.49995681643 0.50004315376
1.00000000000 0.49995687604 0.50004315376
1.00000000000 0.49995687604 0.50004315376
1.00000000000 0.49995681643 0.50004321337
1.00000000000 0.49995681643 0.50004321337
1.00000000000 0.49995687604 0.50004315376
1.00000000000 0.49995681643 0.50004315376
1.00000000000 0.49995681643 0.50004315376
1.00000000000 0.49995687604 0.50004315376
1.00000000000 0.49995687604 0.50004315376
1.00000000000 0.49995687604 0.50004315376
1.00000000000 0.49995681643 0.50004315376
1.00000000000 0.49995681643 0.50004315376
1.00000000000 0.49995681643 0.50004315376
1.00000000000 0.49995687604 0.50004315376
1.00000000000 0.49995687604 0.50004315376
1.00000000000 0.49995693564 0.50004309416
1.00000000000 0.49995693564 0.50004309416
1.00000000000 0.49995681643 0.50004315376
1.00000000000 0.49995681643 0.50004321337
1.00000000000 0.49995681643 0.50004321337
1.00000000000 0.49995681643 0.50004315376
1.00000000000 0.49995687604 0.50004315376
1.00000000000 0.49995681643 0.50004321337
1.00000000000 0.49995681643 0.50004315376
1.00000000000 0.49995687604 0.50004315376
1.00000000000 0.49995681643 0.50004321337
1.00000000000 0.49995687604 0.50004315376
1.00000000000 0.49995687604 0.50004315376
1.00000000000 0.49995687604 0.50004315376
1.00000000000 0.49995681643 0.50004315376
1.00000000000 0.49995681643 0.50004315376
1.00000000000 0.49995687604 0.50004315376
1.00000000000 0.49995681643 0.50004315376
1.00000000000 0.49995681643 0.50004321337
1.00000000000 0.49995681643 0.50004321337
1.00000000000 0.49995687604 0.50004315376
1.00000000000 0.49995681643 0.50004315376
1.00000000000 0.49995681643 0.50004315376
1.00000000000 0.49995681643 0.50004321337
1.00000000000 0.49995681643 0.50004315376
1.00000000000 0.49995687604 0.50004315376
1.00000000000 0.49995681643 0.50004321337
1.00000000000 0.49995681643 0.50004315376
1.00000000000 0.49995681643 0.50004315376
1.00000000000 0.49995681643 0.50004315376
1.00000000000 0.49995690584 0.50004309416
1.00000000000 0.49995681643 0.50004321337
1.00000000000 0.49995681643 0.50004315376
1.00000000000 0.49995681643 0.50004321337
1.00000000000 0.49995690584 0.50004309416
1.00000000000 0.49995681643 0.50004315376
1.00000000000 0.49995681643 0.50004321337
1.00000000000 0.49995690584 0.50004309416
1.00000000000 0.49995687604 0.50004315376
1.00000000000 0.49995687604 0.50004315376
1.00000000000 0.49995690584 0.50004309416
1.00000000000 0.49995681643 0.50004315376
1.00000000000 0.49995681643 0.50004315376
1.00000000000 0.49995681643 0.50004315376
1.00000000000 0.49995687604 0.50004315376
1.00000000000 0.49995681643 0.50004315376
1.00000000000 0.49995681643 0.50004315376
1.00000000000 0.49995681643 0.50004315376
1.00000000000 0.49995681643 0.50004315376
1.00000000000 0.49995681643 0.50004315376
1.00000000000 0.49995681643 0.50004315376
1.00000000000 0.49995687604 0.50004315376
1.00000000000 0.49995681643 0.50004315376
1.00000000000 0.49995681643 0.50004321337
1.00000000000 0.49995681643 0.50004321337
1.00000000000 0.49995681643 0.50004321337
1.00000000000 0.49995681643 0.50004321337
1.00000000000 0.49995681643 0.50004315376
1.00000000000 0.49995681643 0.50004321337
1.00000000000 0.49995687604 0.50004315376
1.00000000000 0.49995681643 0.50004315376
1.00000000000 0.49995681643 0.50004315376
1.00000000000 0.49995687604 0.50004315376
1.00000000000 0.49995681643 0.50004321337
1.00000000000 0.49995687604 0.50004315376
1.00000000000 0.49995687604 0.50004315376
1.00000000000 0.49995681643 0.50004321337
1.00000000000 0.49995687604 0.50004315376
1.00000000000 0.49995693564 0.50004309416
1.00000000000 0.49995681643 0.50004315376
1.00000000000 0.49995687604 0.50004315376
1.00000000000 0.49995681643 0.50004315376
1.00000000000 0.49995681643 0.50004321337
1.00000000000 0.49995690584 0.50004309416
1.00000000000 0.49995681643 0.50004321337
1.00000000000 0.49995690584 0.50004309416
1.00000000000 0.49995681643 0.50004315376
1.00000000000 0.49995675683 0.50004321337
1.00000000000 0.49995681643 0.50004315376
1.00000000000 0.49995681643 0.50004321337
1.00000000000 0.49995681643 0.50004321337
1.00000000000 0.49995681643 0.50004321337
1.00000000000 0.49995681643 0.50004315376
1.00000000000 0.49995687604 0.50004315376
1.00000000000 0.49995681643 0.50004321337
1.00000000000 0.49995687604 0.50004315376
1.00000000000 0.49995681643 0.50004321337
1.00000000000 0.49995681643 0.50004321337
1.00000000000 0.49995681643 0.50004321337
1.00000000000 0.49995690584 0.50004309416
1.00000000000 0.49995681643 0.50004315376
1.00000000000 0.49995681643 0.50004321337
1.00000000000 0.49995693564 0.50004309416
1.00000000000 0.49995681643 0.50004321337
1.00000000000 0.49995687604 0.50004315376
1.00000000000 0.49995681643 0.50004321337
1.00000000000 0.49995690584 0.50004309416
1.00000000000 0.49995681643 0.50004321337
1.00000000000 0.49995681643 0.50004315376
1.00000000000 0.49995693564 0.50004309416
1.00000000000 0.49995687604 0.50004315376
1.00000000000 0.49995681643 0.50004321337
1.00000000000 0.49995681643 0.50004321337
1.00000000000 0.49995687604 0.50004315376
1.00000000000 0.49995687604 0.50004315376
1.00000000000 0.49995681643 0.50004321337
1.00000000000 0.49995681643 0.50004321337
1.00000000000 0.49995681643 0.50004321337
1.00000000000 0.49995681643 0.50004315376
1.00000000000 0.49995687604 0.50004315376
1.00000000000 0.49995681643 0.50004321337
1.00000000000 0.49995681643 0.50004315376
1.00000000000 0.49995681643 0.50004321337
1.00000000000 0.49995681643 0.50004321337
1.00000000000 0.49995681643 0.50004315376
1.00000000000 0.49995687604 0.50004315376
1.00000000000 0.49995681643 0.50004315376
1.00000000000 0.49995687604 0.50004315376
1.00000000000 0.49995687604 0.50004315376
1.00000000000 0.49995681643 0.50004315376
1.00000000000 0.49995681643 0.50004321337
1.00000000000 0.49995681643 0.50004321337
1.00000000000 0.49995681643 0.50004315376
1.00000000000 0.49995687604 0.50004315376
1.00000000000 0.49995687604 0.50004315376
1.00000000000 0.49995681643 0.50004321337
1.00000000000 0.49995687604 0.50004315376
1.00000000000 0.49995681643 0.50004315376
1.00000000000 0.49995687604 0.50004315376
1.00000000000 0.49995681643 0.50004315376
1.00000000000 0.49995681643 0.50004315376
1.00000000000 0.49995681643 0.50004315376
1.00000000000 0.49995687604 0.50004315376
1.00000000000 0.49995681643 0.50004315376
1.00000000000 0.49995687604 0.50004315376
1.00000000000 0.49995681643 0.50004315376
1.00000000000 0.49995681643 0.50004321337
1.00000000000 0.49995681643 0.50004321337
1.00000000000 0.49995681643 0.50004315376
1.00000000000 0.49995681643 0.50004321337
1.00000000000 0.49995681643 0.50004321337
1.00000000000 0.49995681643 0.50004315376
1.00000000000 0.49995687604 0.50004315376
1.00000000000 0.49995681643 0.50004321337
1.00000000000 0.49995681643 0.50004321337
1.00000000000 0.49995681643 0.50004321337
1.00000000000 0.49995681643 0.50004321337
1.00000000000 0.49995687604 0.50004315376
1.00000000000 0.49995681643 0.50004315376
1.00000000000 0.49995681643 0.50004321337
1.00000000000 0.49995681643 0.50004321337
1.00000000000 0.49995681643 0.50004315376
1.00000000000 0.49995681643 0.50004315376
1.00000000000 0.49995687604 0.50004315376
1.00000000000 0.49995687604 0.50004315376
1.00000000000 0.49995681643 0.50004321337
1.00000000000 0.49995681643 0.50004321337
1.00000000000 0.49995681643 0.50004321337
1.00000000000 0.49995681643 0.50004321337
1.00000000000 0.49995681643 0.50004321337
1.00000000000 0.49995681643 0.50004315376
1.00000000000 0.49995681643 0.50004315376
1.00000000000 0.49995681643 0.50004315376
1.00000000000 0.49995681643 0.50004321337
1.00000000000 0.49995681643 0.50004315376
1.00000000000 0.49995687604 0.50004315376
1.00000000000 0.49995681643 0.50004321337
1.00000000000 0.49995687604 0.50004315376
1.00000000000 0.49995681643 0.50004315376
1.00000000000 0.49995687604 0.50004315376
1.00000000000 0.49995687604 0.50004315376
1.00000000000 0.49995687604 0.50004315376
1.00000000000 0.49995687604 0.50004315376
1.00000000000 0.49995681643 0.50004321337
1.00000000000 0.49995687604 0.50004315376
1.00000000000 0.49995681643 0.50004321337
1.00000000000 0.49995681643 0.50004321337
1.00000000000 0.49995681643 0.50004315376
1.00000000000 0.49995687604 0.50004315376
1.00000000000 0.49995687604 0.50004315376
1.00000000000 0.49995681643 0.50004315376
1.00000000000 0.49995681643 0.50004321337
1.00000000000 0.49995681643 0.50004321337
1.00000000000 0.49995681643 0.50004315376
1.00000000000 0.49995681643 0.50004321337
1.00000000000 0.49995681643 0.50004315376
1.00000000000 0.49995687604 0.50004315376
1.00000000000 0.49995681643 0.50004321337
1.00000000000 0.49995681643 0.50004315376
1.00000000000 0.49995681643 0.50004315376
1.00000000000 0.49995681643 0.50004321337
1.00000000000 0.49995681643 0.50004321337
1.00000000000 0.49995681643 0.50004321337
1.00000000000 0.49995681643 0.50004315376
1.00000000000 0.49995687604 0.50004315376
1.00000000000 0.49995681643 0.50004315376
1.00000000000 0.49995687604 0.50004315376
1.00000000000 0.49995681643 0.50004315376
1.00000000000 0.49995681643 0.50004321337
1.00000000000 0.49995681643 0.50004321337
1.00000000000 0.49995690584 0.50004309416
1.00000000000 0.49995681643 0.50004321337
1.00000000000 0.49995681643 0.50004315376
1.00000000000 0.49995681643 0.50004321337
1.00000000000 0.49995681643 0.50004321337
1.00000000000 0.49995681643 0.50004321337
1.00000000000 0.49995687604 0.50004315376
1.00000000000 0.49995681643 0.50004321337
1.00000000000 0.49995687604 0.50004315376
1.00000000000 0.49995687604 0.50004315376
1.00000000000 0.49995687604 0.50004315376
1.00000000000 0.49995687604 0.50004315376
1.00000000000 0.49995681643 0.50004315376
1.00000000000 0.49995687604 0.50004315376
1.00000000000 0.49995681643 0.50004315376
1.00000000000 0.49995687604 0.50004315376
1.00000000000 0.49995681643 0.50004321337
1.00000000000 0.49995681643 0.50004321337
1.00000000000 0.49995681643 0.50004315376
1.00000000000 0.49995681643 0.50004321337
1.00000000000 0.49995681643 0.50004321337
1.00000000000 0.49995681643 0.50004321337
1.00000000000 0.49995681643 0.50004315376
1.00000000000 0.49995681643 0.50004315376
1.00000000000 0.49995681643 0.50004321337
1.00000000000 0.49995681643 0.50004321337
1.00000000000 0.49995681643 0.50004315376
1.00000000000 0.49995681643 0.50004321337
1.00000000000 0.49995687604 0.50004315376
1.00000000000 0.49995681643 0.50004315376
1.00000000000 0.49995681643 0.50004321337
1.00000000000 0.49995681643 0.50004321337
1.00000000000 0.49995687604 0.50004315376
1.00000000000 0.49995681643 0.50004315376
1.00000000000 0.49995687604 0.50004315376
1.00000000000 0.49995681643 0.50004321337
1.00000000000 0.49995681643 0.50004315376
1.00000000000 0.49995681643 0.50004321337
1.00000000000 0.49995681643 0.50004315376
1.00000000000 0.49995690584 0.50004309416
1.00000000000 0.49995681643 0.50004321337
1.00000000000 0.49995681643 0.50004315376
1.00000000000 0.49995681643 0.50004321337
1.00000000000 0.49995681643 0.50004321337
1.00000000000 0.49995681643 0.50004315376
1.00000000000 0.49995681643 0.50004315376
1.00000000000 0.49995681643 0.50004315376
1.00000000000 0.49995687604 0.50004315376
1.00000000000 0.49995681643 0.50004321337
1.00000000000 0.49995681643 0.50004321337
1.00000000000 0.49995687604 0.50004315376
1.00000000000 0.49995681643 0.50004321337
1.00000000000 0.49995681643 0.50004321337
1.00000000000 0.49995687604 0.50004315376
1.00000000000 0.49995681643 0.50004321337
1.00000000000 0.49995681643 0.50004321337
1.00000000000 0.49995681643 0.50004321337
1.00000000000 0.49995681643 0.50004321337
1.00000000000 0.49995687604 0.50004315376
1.00000000000 0.49995687604 0.50004315376
1.00000000000 0.49995687604 0.50004315376
1.00000000000 0.49995681643 0.50004315376
1.00000000000 0.49995687604 0.50004315376
1.00000000000 0.49995681643 0.50004315376
1.00000000000 0.49995687604 0.50004315376
1.00000000000 0.49995687604 0.50004315376
1.00000000000 0.49995687604 0.50004315376
1.00000000000 0.49995687604 0.50004315376
1.00000000000 0.49995681643 0.50004315376
1.00000000000 0.49995681643 0.50004315376
1.00000000000 0.49995681643 0.50004315376
1.00000000000 0.49995687604 0.50004315376
1.00000000000 0.49995681643 0.50004315376
1.00000000000 0.49995681643 0.50004321337
1.00000000000 0.49995681643 0.50004315376
1.00000000000 0.49995690584 0.50004309416
1.00000000000 0.49995681643 0.50004321337
1.00000000000 0.49995681643 0.50004321337
1.00000000000 0.49995681643 0.50004315376
1.00000000000 0.49995687604 0.50004315376
1.00000000000 0.49995681643 0.50004315376
1.00000000000 0.49995681643 0.50004315376
1.00000000000 0.49995681643 0.50004315376
1.00000000000 0.49995690584 0.50004309416
1.00000000000 0.49995681643 0.50004315376
1.00000000000 0.49995681643 0.50004315376
1.00000000000 0.49995681643 0.50004315376
1.00000000000 0.49995687604 0.50004315376
1.00000000000 0.49995681643 0.50004315376
1.00000000000 0.49995681643 0.50004315376
1.00000000000 0.49995681643 0.50004315376
1.00000000000 0.49995681643 0.50004321337
1.00000000000 0.49995681643 0.50004321337
1.00000000000 0.49995681643 0.50004315376
1.00000000000 0.49995687604 0.50004315376
1.00000000000 0.49995681643 0.50004315376
1.00000000000 0.49995681643 0.50004321337
1.00000000000 0.49995681643 0.50004321337
1.00000000000 0.49995681643 0.50004321337
1.00000000000 0.49995681643 0.50004321337
1.00000000000 0.49995681643 0.50004321337
1.00000000000 0.49995681643 0.50004321337
1.00000000000 0.49995681643 0.50004321337
1.00000000000 0.49995681643 0.50004315376
1.00000000000 0.49995687604 0.50004315376
1.00000000000 0.49995681643 0.50004321337
1.00000000000 0.49995681643 0.50004315376
1.00000000000 0.49995681643 0.50004321337
1.00000000000 0.49995681643 0.50004321337
1.00000000000 0.49995681643 0.50004315376
1.00000000000 0.49995687604 0.50004315376
1.00000000000 0.49995693564 0.50004309416
1.00000000000 0.49995687604 0.50004315376
1.00000000000 0.49995681643 0.50004321337
1.00000000000 0.49995693564 0.50004309416
1.00000000000 0.49995687604 0.50004315376
1.00000000000 0.49995681643 0.50004321337
1.00000000000 0.49995690584 0.50004309416
1.00000000000 0.49995687604 0.50004315376
1.00000000000 0.49995681643 0.50004315376
1.00000000000 0.49995681643 0.50004321337
1.00000000000 0.49995681643 0.50004321337
1.00000000000 0.49995681643 0.50004315376
1.00000000000 0.49995681643 0.50004321337
1.00000000000 0.49995681643 0.50004321337
1.00000000000 0.49995687604 0.50004315376
1.00000000000 0.49995681643 0.50004315376
1.00000000000 0.49995690584 0.50004309416
1.00000000000 0.49995681643 0.50004315376
1.00000000000 0.49995681643 0.50004321337
1.00000000000 0.49995687604 0.50004315376
1.00000000000 0.49995681643 0.50004321337
1.00000000000 0.49995681643 0.50004321337
1.00000000000 0.49995681643 0.50004321337
1.00000000000 0.49995681643 0.50004315376
1.00000000000 0.49995690584 0.50004309416
1.00000000000 0.49995681643 0.50004315376
1.00000000000 0.49995681643 0.50004321337
1.00000000000 0.49995687604 0.50004315376
1.00000000000 0.49995681643 0.50004315376
1.00000000000 0.49995687604 0.50004315376
1.00000000000 0.49995687604 0.50004315376
1.00000000000 0.49995681643 0.50004321337
1.00000000000 0.49995681643 0.50004321337
1.00000000000 0.49995681643 0.50004321337
1.00000000000 0.49995681643 0.50004321337
1.00000000000 0.49995681643 0.50004315376
1.00000000000 0.49995687604 0.50004315376
1.00000000000 0.49995681643 0.50004315376
1.00000000000 0.49995687604 0.50004315376
1.00000000000 0.49995681643 0.50004321337
1.00000000000 0.49995681643 0.50004321337
1.00000000000 0.49995681643 0.50004315376
1.00000000000 0.49995681643 0.50004315376
1.00000000000 0.49995681643 0.50004321337
1.00000000000 0.49995687604 0.50004315376
1.00000000000 0.49995687604 0.50004315376
1.00000000000 0.49995687604 0.50004315376
1.00000000000 0.49995681643 0.50004315376
1.00000000000 0.49995681643 0.50004315376
1.00000000000 0.49995681643 0.50004315376
1.00000000000 0.49995681643 0.50004321337
1.00000000000 0.49995681643 0.50004315376
1.00000000000 0.49995687604 0.50004315376
1.00000000000 0.49995681643 0.50004315376
1.00000000000 0.49995681643 0.50004315376
1.00000000000 0.49995687604 0.50004315376
1.00000000000 0.49995681643 0.50004315376
1.00000000000 0.49995687604 0.50004315376
1.00000000000 0.49995681643 0.50004315376
1.00000000000 0.49995687604 0.50004315376
1.00000000000 0.49995681643 0.50004315376
1.00000000000 0.49995681643 0.50004321337
1.00000000000 0.49995681643 0.50004321337
1.00000000000 0.49995681643 0.50004321337
1.00000000000 0.49995690584 0.50004309416
1.00000000000 0.49995681643 0.50004315376
1.00000000000 0.49995687604 0.50004315376
1.00000000000 0.49995687604 0.50004315376
1.00000000000 0.49995681643 0.50004315376
1.00000000000 0.49995681643 0.50004315376
1.00000000000 0.49995675683 0.50004321337
1.00000000000 0.49995681643 0.50004315376
1.00000000000 0.49995681643 0.50004315376
1.00000000000 0.49995681643 0.50004321337
1.00000000000 0.49995681643 0.50004321337
1.00000000000 0.49995681643 0.50004315376
1.00000000000 0.49995675683 0.50004321337
1.00000000000 0.49995681643 0.50004321337
1.00000000000 0.49995687604 0.50004315376
1.00000000000 0.49995687604 0.50004315376
1.00000000000 0.49995687604 0.50004315376
1.00000000000 0.49995681643 0.50004315376
1.00000000000 0.49995687604 0.50004315376
1.00000000000 0.49995687604 0.50004315376
1.00000000000 0.49995681643 0.50004315376
1.00000000000 0.49995681643 0.50004315376
1.00000000000 0.49995681643 0.50004321337
1.00000000000 0.49995681643 0.50004321337
1.00000000000 0.49995681643 0.50004315376
1.00000000000 0.49995687604 0.50004315376
1.00000000000 0.49995681643 0.50004315376
1.00000000000 0.49995681643 0.50004315376
1.00000000000 0.49995681643 0.50004315376
1.00000000000 0.49995681643 0.50004315376
1.00000000000 0.49995681643 0.50004315376
1.00000000000 0.49995681643 0.50004315376
1.00000000000 0.49995681643 0.50004315376
1.00000000000 0.49995681643 0.50004321337
1.00000000000 0.49995681643 0.50004315376
1.00000000000 0.49995681643 0.50004321337
1.00000000000 0.49995681643 0.50004315376
1.00000000000 0.49995681643 0.50004315376
1.00000000000 0.49995681643 0.50004315376
1.00000000000 0.49995681643 0.50004315376
1.00000000000 0.49995681643 0.50004315376
1.00000000000 0.49995681643 0.50004321337
1.00000000000 0.49995681643 0.50004315376
1.00000000000 0.49995681643 0.50004321337
1.00000000000 0.49995681643 0.50004321337
1.00000000000 0.49995681643 0.50004321337
1.00000000000 0.49995690584 0.50004309416
1.00000000000 0.49995681643 0.50004315376
1.00000000000 0.49995681643 0.50004321337
1.00000000000 0.49995687604 0.50004315376
1.00000000000 0.49995687604 0.50004315376
1.00000000000 0.49995681643 0.50004321337
1.00000000000 0.49995681643 0.50004321337
1.00000000000 0.49995681643 0.50004321337
1.00000000000 0.49995681643 0.50004315376
1.00000000000 0.49995687604 0.50004315376
1.00000000000 0.49995687604 0.50004315376
1.00000000000 0.49995681643 0.50004315376
1.00000000000 0.49995681643 0.50004321337
1.00000000000 0.49995681643 0.50004321337
1.00000000000 0.49995681643 0.50004315376
1.00000000000 0.49995681643 0.50004321337
1.00000000000 0.49995687604 0.50004315376
1.00000000000 0.49995681643 0.50004315376
1.00000000000 0.49995681643 0.50004315376
1.00000000000 0.49995681643 0.50004321337
1.00000000000 0.49995681643 0.50004315376
1.00000000000 0.49995681643 0.50004315376
1.00000000000 0.49995681643 0.50004321337
1.00000000000 0.49995690584 0.50004309416
1.00000000000 0.49995681643 0.50004315376
1.00000000000 0.49995681643 0.50004315376
1.00000000000 0.49995681643 0.50004315376
1.00000000000 0.49995687604 0.50004315376
1.00000000000 0.49995681643 0.50004315376
1.00000000000 0.49995687604 0.50004315376
1.00000000000 0.49995687604 0.50004315376
1.00000000000 0.49995681643 0.50004321337
1.00000000000 0.49995681643 0.50004321337
1.00000000000 0.49995687604 0.50004315376
1.00000000000 0.49995681643 0.50004321337
1.00000000000 0.49995681643 0.50004321337
1.00000000000 0.49995690584 0.50004309416
1.00000000000 0.49995681643 0.50004321337
1.00000000000 0.49995681643 0.50004321337
1.00000000000 0.49995681643 0.50004321337
1.00000000000 0.49995687604 0.50004315376
1.00000000000 0.49995681643 0.50004321337
1.00000000000 0.49995681643 0.50004315376
1.00000000000 0.49995681643 0.50004321337
1.00000000000 0.49995681643 0.50004315376
1.00000000000 0.49995681643 0.50004321337
1.00000000000 0.49995690584 0.50004309416
1.00000000000 0.49995681643 0.50004321337
1.00000000000 0.49995687604 0.50004315376
1.00000000000 0.49995681643 0.50004321337
1.00000000000 0.49995681643 0.50004321337
1.00000000000 0.49995681643 0.50004321337
1.00000000000 0.49995681643 0.50004321337
1.00000000000 0.49995681643 0.50004321337
1.00000000000 0.49995681643 0.50004315376
1.00000000000 0.49995681643 0.50004321337
1.00000000000 0.49995681643 0.50004321337
1.00000000000 0.49995681643 0.50004321337
1.00000000000 0.49995681643 0.50004321337
1.00000000000 0.49995681643 0.50004321337
1.00000000000 0.49995681643 0.50004321337
1.00000000000 0.49995681643 0.50004315376
1.00000000000 0.49995681643 0.50004321337
1.00000000000 0.49995681643 0.50004315376
1.00000000000 0.49995681643 0.50004315376
1.00000000000 0.49995681643 0.50004321337
1.00000000000 0.49995681643 0.50004315376
1.00000000000 0.49995681643 0.50004321337
1.00000000000 0.49995681643 0.50004321337
1.00000000000 0.49995687604 0.50004315376
1.00000000000 0.49995681643 0.50004321337
1.00000000000 0.49995681643 0.50004315376
1.00000000000 0.49995681643 0.50004315376
1.00000000000 0.49995681643 0.50004315376
1.00000000000 0.49995687604 0.50004315376
1.00000000000 0.49995681643 0.50004315376
1.00000000000 0.49995681643 0.50004321337
1.00000000000 0.49995687604 0.50004315376
1.00000000000 0.49995681643 0.50004321337
1.00000000000 0.49995690584 0.50004309416
1.00000000000 0.49995681643 0.50004321337
1.00000000000 0.49995681643 0.50004315376
1.00000000000 0.49995681643 0.50004321337
1.00000000000 0.49995693564 0.50004309416
1.00000000000 0.49995681643 0.50004315376
1.00000000000 0.49995687604 0.50004315376
1.00000000000 0.49995681643 0.50004315376
1.00000000000 0.49995687604 0.50004315376
1.00000000000 0.49995681643 0.50004321337
1.00000000000 0.49995681643 0.50004321337
1.00000000000 0.49995681643 0.50004321337
1.00000000000 0.49995681643 0.50004321337
1.00000000000 0.49995681643 0.50004315376
1.00000000000 0.49995693564 0.50004309416
1.00000000000 0.49995681643 0.50004315376
1.00000000000 0.49995681643 0.50004315376
1.00000000000 0.49995687604 0.50004315376
1.00000000000 0.49995687604 0.50004315376
1.00000000000 0.49995687604 0.50004315376
1.00000000000 0.49995687604 0.50004315376
1.00000000000 0.49995681643 0.50004315376
1.00000000000 0.49995681643 0.50004315376
1.00000000000 0.49995687604 0.50004315376
1.00000000000 0.49995687604 0.50004315376
1.00000000000 0.49995681643 0.50004321337
1.00000000000 0.49995681643 0.50004315376
1.00000000000 0.49995687604 0.50004315376
1.00000000000 0.49995681643 0.50004315376
1.00000000000 0.49995687604 0.50004315376
1.00000000000 0.49995681643 0.50004315376
1.00000000000 0.49995681643 0.50004321337
1.00000000000 0.49995681643 0.50004321337
1.00000000000 0.49995681643 0.50004315376
1.00000000000 0.49995687604 0.50004315376
1.00000000000 0.49995681643 0.50004321337
1.00000000000 0.49995681643 0.50004315376
1.00000000000 0.49995687604 0.50004315376
1.00000000000 0.49995681643 0.50004315376
1.00000000000 0.49995687604 0.50004315376
1.00000000000 0.49995681643 0.50004321337
1.00000000000 0.49995687604 0.50004315376
1.00000000000 0.49995690584 0.50004309416
1.00000000000 0.49995690584 0.50004309416
1.00000000000 0.49995681643 0.50004321337
1.00000000000 0.49995681643 0.50004315376
1.00000000000 0.49995681643 0.50004315376
1.00000000000 0.49995681643 0.50004321337
1.00000000000 0.49995690584 0.50004309416
1.00000000000 0.49995681643 0.50004315376
1.00000000000 0.49995681643 0.50004321337
1.00000000000 0.49995681643 0.50004321337
1.00000000000 0.49995681643 0.50004315376
1.00000000000 0.49995681643 0.50004315376
1.00000000000 0.49995681643 0.50004321337
1.00000000000 0.49995690584 0.50004309416
1.00000000000 0.49995687604 0.50004315376
1.00000000000 0.49995681643 0.50004315376
1.00000000000 0.49995681643 0.50004321337
1.00000000000 0.49995681643 0.50004321337
1.00000000000 0.49995687604 0.50004315376
1.00000000000 0.49995681643 0.50004315376
1.00000000000 0.49995681643 0.50004321337
1.00000000000 0.49995681643 0.50004321337
1.00000000000 0.49995687604 0.50004315376
1.00000000000 0.49995681643 0.50004315376
1.00000000000 0.49995681643 0.50004321337
1.00000000000 0.49995687604 0.50004315376
1.00000000000 0.49995681643 0.50004321337
1.00000000000 0.49995687604 0.50004315376
1.00000000000 0.49995687604 0.50004315376
1.00000000000 0.49995687604 0.50004315376
1.00000000000 0.49995687604 0.50004315376
1.00000000000 0.49995681643 0.50004321337
1.00000000000 0.49995681643 0.50004315376
1.00000000000 0.49995681643 0.50004321337
1.00000000000 0.49995681643 0.50004315376
1.00000000000 0.49995681643 0.50004315376
1.00000000000 0.49995690584 0.50004309416
1.00000000000 0.49995681643 0.50004321337
1.00000000000 0.49995681643 0.50004321337
1.00000000000 0.49995681643 0.50004321337
1.00000000000 0.49995681643 0.50004315376
1.00000000000 0.49995681643 0.50004321337
1.00000000000 0.49995687604 0.50004315376
1.00000000000 0.49995681643 0.50004321337
1.00000000000 0.49995681643 0.50004315376
1.00000000000 0.49995681643 0.50004315376
1.00000000000 0.49995687604 0.50004315376
1.00000000000 0.49995681643 0.50004315376
1.00000000000 0.49995687604 0.50004315376
1.00000000000 0.49995687604 0.50004315376
1.00000000000 0.49995693564 0.50004309416
1.00000000000 0.49995687604 0.50004315376
1.00000000000 0.49995687604 0.50004315376
1.00000000000 0.49995681643 0.50004315376
1.00000000000 0.49995681643 0.50004315376
1.00000000000 0.49995681643 0.50004321337
1.00000000000 0.49995681643 0.50004321337
1.00000000000 0.49995681643 0.50004321337
1.00000000000 0.49995681643 0.50004321337
1.00000000000 0.49995681643 0.50004321337
1.00000000000 0.49995687604 0.50004315376
1.00000000000 0.49995681643 0.50004321337
1.00000000000 0.49995681643 0.50004315376
1.00000000000 0.49995687604 0.50004315376
1.00000000000 0.49995681643 0.50004315376
1.00000000000 0.49995681643 0.50004321337
1.00000000000 0.49995687604 0.50004315376
1.00000000000 0.49995681643 0.50004315376
1.00000000000 0.49995681643 0.50004321337
1.00000000000 0.49995681643 0.50004315376
1.00000000000 0.49995681643 0.50004321337
1.00000000000 0.49995687604 0.50004315376
1.00000000000 0.49995681643 0.50004315376
1.00000000000 0.49995687604 0.50004315376
1.00000000000 0.49995687604 0.50004315376
1.00000000000 0.49995687604 0.50004315376
1.00000000000 0.49995687604 0.50004315376
1.00000000000 0.49995687604 0.50004315376
1.00000000000 0.49995681643 0.50004321337
1.00000000000 0.49995681643 0.50004321337
1.00000000000 0.49995681643 0.50004315376
1.00000000000 0.49995681643 0.50004315376
1.00000000000 0.49995681643 0.50004315376
1.00000000000 0.49995687604 0.50004315376
1.00000000000 0.49995681643 0.50004321337
1.00000000000 0.49995687604 0.50004315376
1.00000000000 0.49995681643 0.50004321337
1.00000000000 0.49995681643 0.50004315376
1.00000000000 0.49995681643 0.50004321337
1.00000000000 0.49995687604 0.50004315376
1.00000000000 0.49995687604 0.50004315376
1.00000000000 0.49995687604 0.50004315376
1.00000000000 0.49995693564 0.50004309416
1.00000000000 0.49995681643 0.50004321337
1.00000000000 0.49995687604 0.50004315376
1.00000000000 0.49995681643 0.50004321337
1.00000000000 0.49995681643 0.50004321337
1.00000000000 0.49995687604 0.50004315376
1.00000000000 0.49995681643 0.50004321337
1.00000000000 0.49995687604 0.50004315376
1.00000000000 0.49995681643 0.50004315376
1.00000000000 0.49995681643 0.50004315376
1.00000000000 0.49995681643 0.50004321337
1.00000000000 0.49995681643 0.50004321337
1.00000000000 0.49995681643 0.50004315376
1.00000000000 0.49995687604 0.50004315376
1.00000000000 0.49995681643 0.50004315376
1.00000000000 0.49995681643 0.50004321337
1.00000000000 0.49995681643 0.50004315376
1.00000000000 0.49995687604 0.50004315376
1.00000000000 0.49995687604 0.50004315376
1.00000000000 0.49995681643 0.50004321337
1.00000000000 0.49995681643 0.50004321337
1.00000000000 0.49995687604 0.50004315376
1.00000000000 0.49995687604 0.50004315376
1.00000000000 0.49995687604 0.50004315376
1.00000000000 0.49995681643 0.50004321337
1.00000000000 0.49995681643 0.50004315376
1.00000000000 0.49995681643 0.50004315376
1.00000000000 0.49995681643 0.50004321337
1.00000000000 0.49995687604 0.50004315376
1.00000000000 0.49995681643 0.50004315376
1.00000000000 0.49995681643 0.50004321337
1.00000000000 0.49995681643 0.50004315376
1.00000000000 0.49995681643 0.50004321337
1.00000000000 0.49995681643 0.50004321337
1.00000000000 0.49995681643 0.50004315376
1.00000000000 0.49995681643 0.50004315376
1.00000000000 0.49995681643 0.50004315376
1.00000000000 0.49995687604 0.50004315376
1.00000000000 0.49995681643 0.50004315376
1.00000000000 0.49995681643 0.50004321337
1.00000000000 0.49995687604 0.50004315376
1.00000000000 0.49995681643 0.50004321337
1.00000000000 0.49995681643 0.50004321337
1.00000000000 0.49995681643 0.50004315376
1.00000000000 0.49995681643 0.50004321337
1.00000000000 0.49995681643 0.50004321337
1.00000000000 0.49995681643 0.50004321337
1.00000000000 0.49995681643 0.50004321337
1.00000000000 0.49995690584 0.50004309416
1.00000000000 0.49995681643 0.50004321337
1.00000000000 0.49995690584 0.50004309416
1.00000000000 0.49995681643 0.50004321337
1.00000000000 0.49995681643 0.50004315376
1.00000000000 0.49995681643 0.50004321337
1.00000000000 0.49995681643 0.50004315376
1.00000000000 0.49995681643 0.50004315376
1.00000000000 0.49995681643 0.50004321337
1.00000000000 0.49995681643 0.50004315376
1.00000000000 0.49995681643 0.50004315376
1.00000000000 0.49995675683 0.50004321337
1.00000000000 0.49995681643 0.50004321337
1.00000000000 0.49995687604 0.50004315376
1.00000000000 0.49995687604 0.50004315376
1.00000000000 0.49995681643 0.50004315376
1.00000000000 0.49995687604 0.50004315376
1.00000000000 0.49995687604 0.50004315376
1.00000000000 0.49995690584 0.50004309416
1.00000000000 0.49995687604 0.50004315376
1.00000000000 0.49995681643 0.50004315376
1.00000000000 0.49995687604 0.50004315376
1.00000000000 0.49995681643 0.50004315376
1.00000000000 0.49995681643 0.50004315376
1.00000000000 0.49995681643 0.50004315376
1.00000000000 0.49995681643 0.50004315376
1.00000000000 0.49995681643 0.50004321337
1.00000000000 0.49995687604 0.50004315376
1.00000000000 0.49995681643 0.50004321337
1.00000000000 0.49995690584 0.50004309416
1.00000000000 0.49995687604 0.50004315376
1.00000000000 0.49995681643 0.50004321337
1.00000000000 0.49995681643 0.50004315376
1.00000000000 0.49995681643 0.50004321337
1.00000000000 0.49995687604 0.50004315376
1.00000000000 0.49995687604 0.50004315376
1.00000000000 0.49995681643 0.50004315376
1.00000000000 0.49995681643 0.50004321337
1.00000000000 0.49995687604 0.50004315376
1.00000000000 0.49995687604 0.50004315376
1.00000000000 0.49995681643 0.50004321337
1.00000000000 0.49995681643 0.50004315376
1.00000000000 0.49995681643 0.50004321337
1.00000000000 0.49995681643 0.50004315376
1.00000000000 0.49995681643 0.50004315376
1.00000000000 0.49995681643 0.50004321337
1.00000000000 0.49995681643 0.50004315376
1.00000000000 0.49995687604 0.50004315376
1.00000000000 0.49995687604 0.50004315376
1.00000000000 0.49995681643 0.50004315376
1.00000000000 0.49995681643 0.50004315376
1.00000000000 0.49995687604 0.50004315376
1.00000000000 0.49995690584 0.50004309416
1.00000000000 0.49995687604 0.50004315376
1.00000000000 0.49995687604 0.50004315376
1.00000000000 0.49995681643 0.50004315376
1.00000000000 0.49995690584 0.50004309416
1.00000000000 0.49995681643 0.50004321337
1.00000000000 0.49995690584 0.50004309416
1.00000000000 0.49995681643 0.50004315376
1.00000000000 0.49995681643 0.50004321337
1.00000000000 0.49995681643 0.50004321337
1.00000000000 0.49995681643 0.50004315376
1.00000000000 0.49995681643 0.50004321337
1.00000000000 0.49995681643 0.50004321337
1.00000000000 0.49995687604 0.50004315376
1.00000000000 0.49995681643 0.50004321337
1.00000000000 0.49995681643 0.50004315376
1.00000000000 0.49995681643 0.50004315376
1.00000000000 0.49995687604 0.50004315376
1.00000000000 0.49995687604 0.50004315376
1.00000000000 0.49995681643 0.50004315376
1.00000000000 0.49995681643 0.50004315376
1.00000000000 0.49995681643 0.50004315376
1.00000000000 0.49995681643 0.50004321337
1.00000000000 0.49995690584 0.50004309416
1.00000000000 0.49995696545 0.50004303455
1.00000000000 0.49995693564 0.50004309416
1.00000000000 0.49995687604 0.50004315376
1.00000000000 0.49995687604 0.50004315376
1.00000000000 0.49995693564 0.50004309416
1.00000000000 0.49995681643 0.50004321337
1.00000000000 0.49995681643 0.50004315376
1.00000000000 0.49995681643 0.50004321337
1.00000000000 0.49995681643 0.50004321337
1.00000000000 0.49995681643 0.50004321337
1.00000000000 0.49995687604 0.50004315376
1.00000000000 0.49995681643 0.50004321337
1.00000000000 0.49995681643 0.50004315376
1.00000000000 0.49995690584 0.50004309416
1.00000000000 0.49995681643 0.50004321337
1.00000000000 0.49995681643 0.50004321337
1.00000000000 0.49995681643 0.50004321337
1.00000000000 0.49995690584 0.50004309416
1.00000000000 0.49995681643 0.50004321337
1.00000000000 0.49995687604 0.50004315376
1.00000000000 0.49995681643 0.50004321337
1.00000000000 0.49995687604 0.50004315376
1.00000000000 0.49995681643 0.50004321337
1.00000000000 0.49995681643 0.50004321337
1.00000000000 0.49995687604 0.50004315376
1.00000000000 0.49995681643 0.50004315376
1.00000000000 0.49995681643 0.50004321337
1.00000000000 0.49995687604 0.50004315376
1.00000000000 0.49995690584 0.50004309416
1.00000000000 0.49995681643 0.50004315376
1.00000000000 0.49995681643 0.50004321337
1.00000000000 0.49995687604 0.50004315376
1.00000000000 0.49995681643 0.50004321337
1.00000000000 0.49995687604 0.50004315376
1.00000000000 0.49995681643 0.50004315376
1.00000000000 0.49995687604 0.50004315376
1.00000000000 0.49995681643 0.50004321337
1.00000000000 0.49995687604 0.50004315376
1.00000000000 0.49995681643 0.50004315376
1.00000000000 0.49995681643 0.50004321337
1.00000000000 0.49995687604 0.50004315376
1.00000000000 0.49995681643 0.50004321337
1.00000000000 0.49995681643 0.50004315376
1.00000000000 0.49995675683 0.50004321337
1.00000000000 0.49995681643 0.50004321337
1.00000000000 0.49995687604 0.50004315376
1.00000000000 0.49995681643 0.50004321337
1.00000000000 0.49995681643 0.50004321337
1.00000000000 0.49995690584 0.50004309416
1.00000000000 0.49995693564 0.50004309416
1.00000000000 0.49995681643 0.50004315376
1.00000000000 0.49995681643 0.50004315376
1.00000000000 0.49995687604 0.50004315376
1.00000000000 0.49995687604 0.50004315376
1.00000000000 0.49995687604 0.50004315376
1.00000000000 0.49995681643 0.50004315376
1.00000000000 0.49995675683 0.50004321337
1.00000000000 0.49995681643 0.50004315376
1.00000000000 0.49995687604 0.50004315376
1.00000000000 0.49995681643 0.50004315376
1.00000000000 0.49995681643 0.50004321337
1.00000000000 0.49995681643 0.50004315376
1.00000000000 0.49995681643 0.50004321337
1.00000000000 0.49995681643 0.50004315376
1.00000000000 0.49995681643 0.50004321337
1.00000000000 0.49995681643 0.50004315376
1.00000000000 0.49995681643 0.50004315376
1.00000000000 0.49995681643 0.50004315376
1.00000000000 0.49995687604 0.50004315376
1.00000000000 0.49995681643 0.50004321337
1.00000000000 0.49995681643 0.50004315376
1.00000000000 0.49995681643 0.50004315376
1.00000000000 0.49995687604 0.50004315376
1.00000000000 0.49995681643 0.50004321337
1.00000000000 0.49995681643 0.50004321337
1.00000000000 0.49995681643 0.50004315376
1.00000000000 0.49995687604 0.50004315376
1.00000000000 0.49995687604 0.50004315376
1.00000000000 0.49995681643 0.50004315376
1.00000000000 0.49995681643 0.50004321337
1.00000000000 0.49995681643 0.50004315376
1.00000000000 0.49995681643 0.50004321337
1.00000000000 0.49995681643 0.50004321337
1.00000000000 0.49995681643 0.50004321337
1.00000000000 0.49995681643 0.50004321337
1.00000000000 0.49995681643 0.50004321337
1.00000000000 0.49995681643 0.50004315376
1.00000000000 0.49995681643 0.50004315376
1.00000000000 0.49995681643 0.50004321337
1.00000000000 0.49995687604 0.50004315376
1.00000000000 0.49995681643 0.50004321337
1.00000000000 0.49995681643 0.50004315376
1.00000000000 0.49995681643 0.50004321337
1.00000000000 0.49995687604 0.50004315376
1.00000000000 0.49995687604 0.50004315376
1.00000000000 0.49995681643 0.50004321337
1.00000000000 0.49995681643 0.50004321337
1.00000000000 0.49995681643 0.50004321337
1.00000000000 0.49995681643 0.50004315376
1.00000000000 0.49995687604 0.50004315376
1.00000000000 0.49995687604 0.50004315376
1.00000000000 0.49995687604 0.50004315376
1.00000000000 0.49995681643 0.50004321337
1.00000000000 0.49995681643 0.50004315376
1.00000000000 0.49995687604 0.50004315376
1.00000000000 0.49995681643 0.50004321337
1.00000000000 0.49995681643 0.50004315376
1.00000000000 0.49995681643 0.50004321337
1.00000000000 0.49995681643 0.50004321337
1.00000000000 0.49995681643 0.50004315376
1.00000000000 0.49995687604 0.50004315376
1.00000000000 0.49995681643 0.50004321337
1.00000000000 0.49995681643 0.50004315376
1.00000000000 0.49995681643 0.50004321337
1.00000000000 0.49995681643 0.50004321337
1.00000000000 0.49995681643 0.50004315376
1.00000000000 0.49995681643 0.50004321337
1.00000000000 0.49995681643 0.50004321337
1.00000000000 0.49995681643 0.50004321337
1.00000000000 0.49995681643 0.50004321337
1.00000000000 0.49995690584 0.50004309416
1.00000000000 0.49995687604 0.50004315376
1.00000000000 0.49995681643 0.50004315376
1.00000000000 0.49995687604 0.50004315376
1.00000000000 0.49995681643 0.50004321337
1.00000000000 0.49995681643 0.50004321337
1.00000000000 0.49995681643 0.50004315376
1.00000000000 0.49995681643 0.50004315376
1.00000000000 0.49995681643 0.50004321337
1.00000000000 0.49995687604 0.50004315376
1.00000000000 0.49995681643 0.50004315376
1.00000000000 0.49995681643 0.50004315376
1.00000000000 0.49995681643 0.50004321337
1.00000000000 0.49995681643 0.50004321337
1.00000000000 0.49995681643 0.50004321337
1.00000000000 0.49995681643 0.50004321337
1.00000000000 0.49995690584 0.50004309416
1.00000000000 0.49995687604 0.50004315376
1.00000000000 0.49995681643 0.50004315376
1.00000000000 0.49995687604 0.50004315376
1.00000000000 0.49995681643 0.50004315376
1.00000000000 0.49995681643 0.50004321337
1.00000000000 0.49995681643 0.50004315376
1.00000000000 0.49995681643 0.50004315376
1.00000000000 0.49995681643 0.50004315376
1.00000000000 0.49995687604 0.50004315376
1.00000000000 0.49995681643 0.50004315376
1.00000000000 0.49995681643 0.50004315376
1.00000000000 0.49995681643 0.50004315376
1.00000000000 0.49995681643 0.50004321337
1.00000000000 0.49995681643 0.50004321337
1.00000000000 0.49995681643 0.50004321337
1.00000000000 0.49995681643 0.50004315376
1.00000000000 0.49995687604 0.50004315376
1.00000000000 0.49995681643 0.50004321337
1.00000000000 0.49995681643 0.50004321337
1.00000000000 0.49995681643 0.50004315376
1.00000000000 0.49995690584 0.50004309416
1.00000000000 0.49995681643 0.50004321337
1.00000000000 0.49995681643 0.50004321337
1.00000000000 0.49995681643 0.50004315376
1.00000000000 0.49995681643 0.50004321337
1.00000000000 0.49995687604 0.50004315376
1.00000000000 0.49995681643 0.50004315376
1.00000000000 0.49995687604 0.50004315376
1.00000000000 0.49995681643 0.50004315376
1.00000000000 0.49995687604 0.50004315376
1.00000000000 0.49995681643 0.50004315376
1.00000000000 0.49995681643 0.50004321337
1.00000000000 0.49995681643 0.50004315376
1.00000000000 0.49995681643 0.50004315376
1.00000000000 0.49995681643 0.50004321337
1.00000000000 0.49995681643 0.50004315376
1.00000000000 0.49995681643 0.50004321337
1.00000000000 0.49995681643 0.50004321337
1.00000000000 0.49995681643 0.50004321337
1.00000000000 0.49995681643 0.50004321337
1.00000000000 0.49995687604 0.50004315376
1.00000000000 0.49995690584 0.50004309416
1.00000000000 0.49995687604 0.50004315376
1.00000000000 0.49995681643 0.50004321337
1.00000000000 0.49995681643 0.50004321337
1.00000000000 0.49995681643 0.50004321337
1.00000000000 0.49995681643 0.50004315376
1.00000000000 0.49995681643 0.50004315376
1.00000000000 0.49995687604 0.50004315376
1.00000000000 0.49995681643 0.50004315376
1.00000000000 0.49995681643 0.50004315376
1.00000000000 0.49995687604 0.50004315376
1.00000000000 0.49995687604 0.50004315376
1.00000000000 0.49995681643 0.50004315376
1.00000000000 0.49995681643 0.50004321337
1.00000000000 0.49995687604 0.50004315376
1.00000000000 0.49995681643 0.50004315376
1.00000000000 0.49995681643 0.50004321337
1.00000000000 0.49995681643 0.50004315376
1.00000000000 0.49995687604 0.50004315376
1.00000000000 0.49995687604 0.50004315376
1.00000000000 0.49995687604 0.50004315376
1.00000000000 0.49995687604 0.50004315376
1.00000000000 0.49995687604 0.50004315376
1.00000000000 0.49995681643 0.50004321337
1.00000000000 0.49995681643 0.50004321337
1.00000000000 0.49995681643 0.50004321337
1.00000000000 0.49995681643 0.50004321337
1.00000000000 0.49995681643 0.50004321337
1.00000000000 0.49995687604 0.50004315376
1.00000000000 0.49995681643 0.50004315376
1.00000000000 0.49995681643 0.50004315376
1.00000000000 0.49995681643 0.50004315376
1.00000000000 0.49995687604 0.50004315376
1.00000000000 0.49995687604 0.50004315376
1.00000000000 0.49995681643 0.50004315376
1.00000000000 0.49995681643 0.50004321337
1.00000000000 0.49995681643 0.50004321337
1.00000000000 0.49995687604 0.50004315376
1.00000000000 0.49995681643 0.50004321337
1.00000000000 0.49995681643 0.50004315376
1.00000000000 0.49995681643 0.50004321337
1.00000000000 0.49995687604 0.50004315376
1.00000000000 0.49995687604 0.50004315376
1.00000000000 0.49995687604 0.50004315376
1.00000000000 0.49995681643 0.50004315376
1.00000000000 0.49995681643 0.50004321337
1.00000000000 0.49995681643 0.50004321337
1.00000000000 0.49995687604 0.50004315376
1.00000000000 0.49995681643 0.50004321337
1.00000000000 0.49995681643 0.50004315376
1.00000000000 0.49995681643 0.50004315376
1.00000000000 0.49995687604 0.50004315376
1.00000000000 0.49995681643 0.50004315376
1.00000000000 0.49995681643 0.50004321337
1.00000000000 0.49995681643 0.50004321337
1.00000000000 0.49995687604 0.50004315376
1.00000000000 0.49995681643 0.50004315376
1.00000000000 0.49995681643 0.50004315376
1.00000000000 0.49995681643 0.50004321337
1.00000000000 0.49995681643 0.50004315376
1.00000000000 0.49995681643 0.50004315376
1.00000000000 0.49995681643 0.50004315376
1.00000000000 0.49995681643 0.50004321337
1.00000000000 0.49995681643 0.50004315376
1.00000000000 0.49995681643 0.50004321337
1.00000000000 0.49995681643 0.50004315376
1.00000000000 0.49995681643 0.50004321337
1.00000000000 0.49995687604 0.50004315376
1.00000000000 0.49995681643 0.50004321337
1.00000000000 0.49995681643 0.50004321337
1.00000000000 0.49995687604 0.50004315376
1.00000000000 0.49995681643 0.50004315376
1.00000000000 0.49995681643 0.50004321337
1.00000000000 0.49995693564 0.50004309416
1.00000000000 0.49995681643 0.50004315376
1.00000000000 0.49995687604 0.50004315376
1.00000000000 0.49995681643 0.50004315376
1.00000000000 0.49995681643 0.50004321337
1.00000000000 0.49995681643 0.50004315376
1.00000000000 0.49995681643 0.50004321337
1.00000000000 0.49995687604 0.50004315376
1.00000000000 0.49995681643 0.50004315376
1.00000000000 0.49995681643 0.50004315376
1.00000000000 0.49995681643 0.50004321337
1.00000000000 0.49995681643 0.50004321337
1.00000000000 0.49995681643 0.50004315376
1.00000000000 0.49995681643 0.50004321337
1.00000000000 0.49995687604 0.50004315376
1.00000000000 0.49995681643 0.50004315376
1.00000000000 0.49995681643 0.50004315376
1.00000000000 0.49995681643 0.50004315376
1.00000000000 0.49995681643 0.50004321337
1.00000000000 0.49995681643 0.50004315376
1.00000000000 0.49995681643 0.50004315376
1.00000000000 0.49995687604 0.50004315376
1.00000000000 0.49995687604 0.50004315376
1.00000000000 0.49995687604 0.50004315376
1.00000000000 0.49995681643 0.50004321337
1.00000000000 0.49995681643 0.50004321337
1.00000000000 0.49995681643 0.50004321337
1.00000000000 0.49995687604 0.50004315376
1.00000000000 0.49995687604 0.50004315376
1.00000000000 0.49995681643 0.50004321337
1.00000000000 0.49995681643 0.50004315376
1.00000000000 0.49995681643 0.50004315376
1.00000000000 0.49995681643 0.50004321337
1.00000000000 0.49995681643 0.50004321337
1.00000000000 0.49995687604 0.50004315376
1.00000000000 0.49995681643 0.50004321337
1.00000000000 0.49995687604 0.50004315376
1.00000000000 0.49995687604 0.50004315376
1.00000000000 0.49995687604 0.50004315376
1.00000000000 0.49995681643 0.50004315376
1.00000000000 0.49995681643 0.50004321337
1.00000000000 0.49995681643 0.50004315376
1.00000000000 0.49995681643 0.50004321337
1.00000000000 0.49995681643 0.50004321337
1.00000000000 0.49995687604 0.50004315376
1.00000000000 0.49995681643 0.50004321337
1.00000000000 0.49995687604 0.50004315376
1.00000000000 0.49995681643 0.50004321337
1.00000000000 0.49995681643 0.50004321337
1.00000000000 0.49995681643 0.50004321337
1.00000000000 0.49995681643 0.50004315376
1.00000000000 0.49995687604 0.50004315376
1.00000000000 0.49995681643 0.50004321337
1.00000000000 0.49995681643 0.50004315376
1.00000000000 0.49995681643 0.50004321337
1.00000000000 0.49995681643 0.50004315376
1.00000000000 0.49995690584 0.50004309416
1.00000000000 0.49995687604 0.50004315376
1.00000000000 0.49995681643 0.50004315376
1.00000000000 0.49995681643 0.50004315376
1.00000000000 0.49995681643 0.50004321337
1.00000000000 0.49995681643 0.50004315376
1.00000000000 0.49995681643 0.50004321337
1.00000000000 0.49995681643 0.50004315376
1.00000000000 0.49995681643 0.50004315376
1.00000000000 0.49995681643 0.50004321337
1.00000000000 0.49995687604 0.50004315376
1.00000000000 0.49995681643 0.50004315376
1.00000000000 0.49995681643 0.50004315376
1.00000000000 0.49995681643 0.50004315376
1.00000000000 0.49995681643 0.50004315376
1.00000000000 0.49995681643 0.50004321337
1.00000000000 0.49995681643 0.50004315376
1.00000000000 0.49995681643 0.50004321337
1.00000000000 0.49995681643 0.50004321337
1.00000000000 0.49995681643 0.50004321337
1.00000000000 0.49995681643 0.50004315376
1.00000000000 0.49995687604 0.50004315376
1.00000000000 0.49995681643 0.50004315376
1.00000000000 0.49995681643 0.50004315376
1.00000000000 0.49995681643 0.50004321337
1.00000000000 0.49995690584 0.50004309416
1.00000000000 0.49995681643 0.50004321337
1.00000000000 0.49995687604 0.50004315376
1.00000000000 0.49995681643 0.50004321337
1.00000000000 0.49995687604 0.50004315376
1.00000000000 0.49995681643 0.50004315376
1.00000000000 0.49995681643 0.50004321337
1.00000000000 0.49995681643 0.50004315376
1.00000000000 0.49995681643 0.50004321337
1.00000000000 0.49995681643 0.50004315376
1.00000000000 0.49995681643 0.50004315376
1.00000000000 0.49995681643 0.50004321337
1.00000000000 0.49995681643 0.50004315376
1.00000000000 0.49995681643 0.50004321337
1.00000000000 0.49995687604 0.50004315376
1.00000000000 0.49995681643 0.50004315376
1.00000000000 0.49995681643 0.50004321337
1.00000000000 0.49995687604 0.50004315376
1.00000000000 0.49995681643 0.50004315376
1.00000000000 0.49995675683 0.50004321337
1.00000000000 0.49995681643 0.50004315376
1.00000000000 0.49995681643 0.50004321337
1.00000000000 0.49995681643 0.50004315376
1.00000000000 0.49995681643 0.50004321337
1.00000000000 0.49995681643 0.50004315376
1.00000000000 0.49995681643 0.50004315376
1.00000000000 0.49995681643 0.50004321337
1.00000000000 0.49995681643 0.50004321337
1.00000000000 0.49995687604 0.50004315376
1.00000000000 0.49995681643 0.50004315376
1.00000000000 0.49995690584 0.50004309416
1.00000000000 0.49995681643 0.50004321337
1.00000000000 0.49995681643 0.50004315376
1.00000000000 0.49995687604 0.50004315376
1.00000000000 0.49995687604 0.50004315376
1.00000000000 0.49995681643 0.50004321337
1.00000000000 0.49995681643 0.50004315376
1.00000000000 0.49995687604 0.50004315376
1.00000000000 0.49995681643 0.50004315376
1.00000000000 0.49995681643 0.50004315376
1.00000000000 0.49995687604 0.50004315376
1.00000000000 0.49995681643 0.50004315376
1.00000000000 0.49995681643 0.50004315376
1.00000000000 0.49995681643 0.50004315376
1.00000000000 0.49995687604 0.50004315376
1.00000000000 0.49995681643 0.50004321337
1.00000000000 0.49995681643 0.50004315376
1.00000000000 0.49995681643 0.50004315376
1.00000000000 0.49995681643 0.50004315376
1.00000000000 0.49995681643 0.50004315376
1.00000000000 0.49995681643 0.50004315376
1.00000000000 0.49995681643 0.50004315376
1.00000000000 0.49995687604 0.50004315376
1.00000000000 0.49995681643 0.50004315376
1.00000000000 0.49995681643 0.50004315376
1.00000000000 0.49995675683 0.50004321337
1.00000000000 0.49995687604 0.50004315376
1.00000000000 0.49995681643 0.50004315376
1.00000000000 0.49995687604 0.50004315376
1.00000000000 0.49995681643 0.50004315376
1.00000000000 0.49995681643 0.50004321337
1.00000000000 0.49995681643 0.50004321337
1.00000000000 0.49995681643 0.50004315376
1.00000000000 0.49995681643 0.50004315376
1.00000000000 0.49995681643 0.50004315376
1.00000000000 0.49995681643 0.50004321337
1.00000000000 0.49995687604 0.50004315376
1.00000000000 0.49995687604 0.50004315376
1.00000000000 0.49995681643 0.50004321337
1.00000000000 0.49995687604 0.50004315376
1.00000000000 0.49995681643 0.50004321337
1.00000000000 0.49995681643 0.50004315376
1.00000000000 0.49995687604 0.50004315376
1.00000000000 0.49995681643 0.50004315376
1.00000000000 0.49995681643 0.50004321337
1.00000000000 0.49995681643 0.50004315376
1.00000000000 0.49995681643 0.50004315376
1.00000000000 0.49995687604 0.50004315376
1.00000000000 0.49995687604 0.50004315376
1.00000000000 0.49995681643 0.50004321337
1.00000000000 0.49995681643 0.50004315376
1.00000000000 0.49995681643 0.50004321337
1.00000000000 0.49995681643 0.50004321337
1.00000000000 0.49995681643 0.50004321337
1.00000000000 0.49995681643 0.50004315376
1.00000000000 0.49995681643 0.50004321337
1.00000000000 0.49995681643 0.50004315376
1.00000000000 0.49995681643 0.50004321337
1.00000000000 0.49995681643 0.50004315376
1.00000000000 0.49995681643 0.50004315376
1.00000000000 0.49995681643 0.50004321337
1.00000000000 0.49995681643 0.50004315376
1.00000000000 0.49995681643 0.50004315376
1.00000000000 0.49995687604 0.50004315376
1.00000000000 0.49995681643 0.50004321337
1.00000000000 0.49995681643 0.50004315376
1.00000000000 0.49995681643 0.50004315376
1.00000000000 0.49995687604 0.50004315376
1.00000000000 0.49995681643 0.50004315376
1.00000000000 0.49995681643 0.50004315376
1.00000000000 0.49995681643 0.50004321337
1.00000000000 0.49995681643 0.50004321337
1.00000000000 0.49995687604 0.50004315376
1.00000000000 0.49995681643 0.50004321337
1.00000000000 0.49995681643 0.50004321337
1.00000000000 0.49995681643 0.50004315376
1.00000000000 0.49995687604 0.50004315376
1.00000000000 0.49995687604 0.50004315376
1.00000000000 0.49995681643 0.50004321337
1.00000000000 0.49995681643 0.50004321337
1.00000000000 0.49995681643 0.50004315376
1.00000000000 0.49995687604 0.50004315376
1.00000000000 0.49995681643 0.50004321337
1.00000000000 0.49995681643 0.50004321337
1.00000000000 0.49995681643 0.50004315376
1.00000000000 0.49995681643 0.50004321337
1.00000000000 0.49995681643 0.50004315376
1.00000000000 0.49995681643 0.50004321337
1.00000000000 0.49995681643 0.50004315376
1.00000000000 0.49995681643 0.50004321337
1.00000000000 0.49995681643 0.50004315376
1.00000000000 0.49995681643 0.50004321337
1.00000000000 0.49995681643 0.50004315376
1.00000000000 0.49995681643 0.50004321337
1.00000000000 0.49995681643 0.50004321337
1.00000000000 0.49995687604 0.50004315376
1.00000000000 0.49995681643 0.50004315376
1.00000000000 0.49995681643 0.50004321337
1.00000000000 0.49995681643 0.50004315376
1.00000000000 0.49995681643 0.50004315376
1.00000000000 0.49995681643 0.50004315376
1.00000000000 0.49995681643 0.50004321337
1.00000000000 0.49995681643 0.50004315376
1.00000000000 0.49995681643 0.50004321337
1.00000000000 0.49995681643 0.50004321337
1.00000000000 0.49995681643 0.50004315376
1.00000000000 0.49995681643 0.50004321337
1.00000000000 0.49995681643 0.50004321337
1.00000000000 0.49995681643 0.50004321337
1.00000000000 0.49995687604 0.50004315376
1.00000000000 0.49995681643 0.50004321337
1.00000000000 0.49995681643 0.50004315376
1.00000000000 0.49995681643 0.50004315376
1.00000000000 0.49995687604 0.50004315376
1.00000000000 0.49995681643 0.50004315376
1.00000000000 0.49995687604 0.50004315376
1.00000000000 0.49995681643 0.50004321337
1.00000000000 0.49995681643 0.50004315376
1.00000000000 0.49995681643 0.50004315376
1.00000000000 0.49995681643 0.50004315376
1.00000000000 0.49995681643 0.50004321337
1.00000000000 0.49995681643 0.50004321337
1.00000000000 0.49995681643 0.50004315376
1.00000000000 0.49995687604 0.50004315376
1.00000000000 0.49995681643 0.50004321337
1.00000000000 0.49995687604 0.50004315376
1.00000000000 0.49995687604 0.50004315376
1.00000000000 0.49995681643 0.50004315376
1.00000000000 0.49995687604 0.50004315376
1.00000000000 0.49995681643 0.50004321337
1.00000000000 0.49995681643 0.50004321337
1.00000000000 0.49995681643 0.50004315376
1.00000000000 0.49995681643 0.50004321337
1.00000000000 0.49995681643 0.50004321337
1.00000000000 0.49995681643 0.50004321337
1.00000000000 0.49995681643 0.50004315376
1.00000000000 0.49995681643 0.50004315376
1.00000000000 0.49995681643 0.50004315376
1.00000000000 0.49995681643 0.50004321337
1.00000000000 0.49995681643 0.50004315376
1.00000000000 0.49995687604 0.50004315376
1.00000000000 0.49995675683 0.50004321337
1.00000000000 0.49995681643 0.50004315376
1.00000000000 0.49995681643 0.50004315376
1.00000000000 0.49995681643 0.50004321337
1.00000000000 0.49995681643 0.50004321337
1.00000000000 0.49995681643 0.50004321337
1.00000000000 0.49995681643 0.50004315376
1.00000000000 0.49995681643 0.50004321337
1.00000000000 0.49995681643 0.50004321337
1.00000000000 0.49995681643 0.50004315376
1.00000000000 0.49995681643 0.50004321337
1.00000000000 0.49995681643 0.50004321337
1.00000000000 0.49995681643 0.50004321337
1.00000000000 0.49995681643 0.50004315376
1.00000000000 0.49995681643 0.50004321337
1.00000000000 0.49995681643 0.50004315376
1.00000000000 0.49995687604 0.50004315376
1.00000000000 0.49995681643 0.50004321337
1.00000000000 0.49995681643 0.50004321337
1.00000000000 0.49995681643 0.50004321337
1.00000000000 0.49995681643 0.50004315376
1.00000000000 0.49995681643 0.50004321337
1.00000000000 0.49995681643 0.50004321337
1.00000000000 0.49995681643 0.50004321337
1.00000000000 0.49995681643 0.50004321337
1.00000000000 0.49995687604 0.50004315376
1.00000000000 0.49995681643 0.50004321337
1.00000000000 0.49995681643 0.50004321337
1.00000000000 0.49995681643 0.50004321337
1.00000000000 0.49995687604 0.50004315376
1.00000000000 0.49995681643 0.50004315376
1.00000000000 0.49995681643 0.50004315376
1.00000000000 0.49995681643 0.50004321337
1.00000000000 0.49995681643 0.50004321337
1.00000000000 0.49995681643 0.50004315376
1.00000000000 0.49995681643 0.50004321337
1.00000000000 0.49995687604 0.50004315376
1.00000000000 0.49995681643 0.50004321337
1.00000000000 0.49995687604 0.50004315376
1.00000000000 0.49995681643 0.50004315376
1.00000000000 0.49995681643 0.50004315376
1.00000000000 0.49995681643 0.50004321337
1.00000000000 0.49995687604 0.50004315376
1.00000000000 0.49995681643 0.50004321337
1.00000000000 0.49995681643 0.50004315376
1.00000000000 0.49995681643 0.50004321337
1.00000000000 0.49995681643 0.50004315376
1.00000000000 0.49995687604 0.50004315376
1.00000000000 0.49995687604 0.50004315376
1.00000000000 0.49995690584 0.50004309416
1.00000000000 0.49995681643 0.50004321337
1.00000000000 0.49995681643 0.50004315376
1.00000000000 0.49995681643 0.50004315376
1.00000000000 0.49995681643 0.50004315376
1.00000000000 0.49995681643 0.50004315376
1.00000000000 0.49995687604 0.50004315376
1.00000000000 0.49995681643 0.50004321337
1.00000000000 0.49995681643 0.50004321337
1.00000000000 0.49995675683 0.50004321337
1.00000000000 0.49995681643 0.50004315376
1.00000000000 0.49995681643 0.50004315376
1.00000000000 0.49995681643 0.50004315376
1.00000000000 0.49995687604 0.50004315376
1.00000000000 0.49995687604 0.50004315376
1.00000000000 0.49995681643 0.50004321337
1.00000000000 0.49995681643 0.50004321337
1.00000000000 0.49995681643 0.50004321337
1.00000000000 0.49995681643 0.50004315376
1.00000000000 0.49995681643 0.50004321337
1.00000000000 0.49995687604 0.50004315376
1.00000000000 0.49995681643 0.50004321337
1.00000000000 0.49995681643 0.50004315376
1.00000000000 0.49995687604 0.50004315376
1.00000000000 0.49995687604 0.50004315376
1.00000000000 0.49995681643 0.50004315376
1.00000000000 0.49995681643 0.50004321337
1.00000000000 0.49995681643 0.50004321337
1.00000000000 0.49995687604 0.50004315376
1.00000000000 0.49995681643 0.50004321337
1.00000000000 0.49995681643 0.50004315376
1.00000000000 0.49995681643 0.50004321337
1.00000000000 0.49995681643 0.50004315376
1.00000000000 0.49995681643 0.50004315376
1.00000000000 0.49995681643 0.50004315376
1.00000000000 0.49995687604 0.50004315376
1.00000000000 0.49995681643 0.50004321337
1.00000000000 0.49995681643 0.50004321337
1.00000000000 0.49995681643 0.50004315376
1.00000000000 0.49995681643 0.50004315376
1.00000000000 0.49995687604 0.50004315376
1.00000000000 0.49995687604 0.50004315376
1.00000000000 0.49995687604 0.50004315376
1.00000000000 0.49995681643 0.50004321337
1.00000000000 0.49995681643 0.50004321337
1.00000000000 0.49995681643 0.50004315376
1.00000000000 0.49995687604 0.50004315376
1.00000000000 0.49995681643 0.50004321337
1.00000000000 0.49995681643 0.50004315376
1.00000000000 0.49995681643 0.50004321337
1.00000000000 0.49995681643 0.50004321337
1.00000000000 0.49995681643 0.50004315376
1.00000000000 0.49995681643 0.50004321337
1.00000000000 0.49995681643 0.50004315376
1.00000000000 0.49995681643 0.50004321337
1.00000000000 0.49995681643 0.50004321337
1.00000000000 0.49995681643 0.50004315376
1.00000000000 0.49995681643 0.50004321337
1.00000000000 0.49995681643 0.50004321337
1.00000000000 0.49995681643 0.50004321337
1.00000000000 0.49995681643 0.50004321337
1.00000000000 0.49995681643 0.50004321337
1.00000000000 0.49995681643 0.50004321337
1.00000000000 0.49995681643 0.50004315376
1.00000000000 0.49995681643 0.50004321337
1.00000000000 0.49995681643 0.50004321337
1.00000000000 0.49995687604 0.50004315376
1.00000000000 0.49995681643 0.50004321337
