0.00000000000 0.46780022979 0.53219974041
0.00000000000 0.46726262569 0.53273737431
0.00000000000 0.46699154377 0.53300845623
1.00000000000 0.46736958623 0.53263044357
1.00000000000 0.46772831678 0.53227168322
0.00000000000 0.46730789542 0.53269207478
0.00000000000 0.46734142303 0.53265857697
1.00000000000 0.46726843715 0.53273153305
0.00000000000 0.46738749743 0.53261256218
0.00000000000 0.46704390645 0.53295606375
0.00000000000 0.46791341901 0.53208661079
0.00000000000 0.46717703342 0.53282296658
1.00000000000 0.46697950363 0.53302055597
0.00000000000 0.46760579944 0.53239423037
0.00000000000 0.46708041430 0.53291958570
0.00000000000 0.46759155393 0.53240847588
0.00000000000 0.46756419539 0.53243577480
0.00000000000 0.46714997292 0.53285002708
0.00000000000 0.46732687950 0.53267312050
1.00000000000 0.46731910110 0.53268092871
0.00000000000 0.46739500761 0.53260505199
0.00000000000 0.46718600392 0.53281396627
0.00000000000 0.46739554405 0.53260439634
0.00000000000 0.46707671881 0.53292328119
0.00000000000 0.46716982126 0.53283017874
0.00000000000 0.46709573269 0.53290426731
0.00000000000 0.46767124534 0.53232878447
0.00000000000 0.46693152189 0.53306841850
0.00000000000 0.46717622876 0.53282374144
0.00000000000 0.46744957566 0.53255039454
0.00000000000 0.46722087264 0.53277909756
0.00000000000 0.46708792448 0.53291207552
0.00000000000 0.46709963679 0.53290033340
0.00000000000 0.46722626686 0.53277373314
0.00000000000 0.46730777621 0.53269219398
0.00000000000 0.46750533581 0.53249466419
0.00000000000 0.46760472655 0.53239530325
0.00000000000 0.46731722355 0.53268277645
0.00000000000 0.46730732918 0.53269267082
1.00000000000 0.46729657054 0.53270339966
0.00000000000 0.46769833565 0.53230166435
0.00000000000 0.46717998385 0.53281998634
0.00000000000 0.46720960736 0.53279042244
0.00000000000 0.46726533771 0.53273469210
0.00000000000 0.46731972694 0.53268027306
0.00000000000 0.46754339337 0.53245663643
0.00000000000 0.46758309007 0.53241688013
1.00000000000 0.46747508645 0.53252488375
0.00000000000 0.46696400642 0.53303599358
1.00000000000 0.46786954999 0.53213042021
0.00000000000 0.46696701646 0.53303301334
0.00000000000 0.46712690592 0.53287309408
0.00000000000 0.46718692780 0.53281307220
0.00000000000 0.46731010079 0.53268992901
0.00000000000 0.46740293503 0.53259706497
0.00000000000 0.46764445305 0.53235554695
0.00000000000 0.46739831567 0.53260165453
0.00000000000 0.46716651320 0.53283345699
0.00000000000 0.46729516983 0.53270488977
1.00000000000 0.46772313118 0.53227686882
0.00000000000 0.46713632345 0.53286361694
1.00000000000 0.46756735444 0.53243267536
0.00000000000 0.46760389209 0.53239607811
0.00000000000 0.46739181876 0.53260821104
0.00000000000 0.46707099676 0.53292906284
0.00000000000 0.46723994613 0.53276008368
0.00000000000 0.46728521585 0.53271472454
0.00000000000 0.46748751402 0.53251248598
0.00000000000 0.46722537279 0.53277462721
1.00000000000 0.46739181876 0.53260815144
1.00000000000 0.46720144153 0.53279858828
0.00000000000 0.46710383892 0.53289616108
0.00000000000 0.46756267548 0.53243726492
1.00000000000 0.46765756607 0.53234243393
0.00000000000 0.46769815683 0.53230184317
0.00000000000 0.46699574590 0.53300422430
0.00000000000 0.46722269058 0.53277736902
0.00000000000 0.46764427423 0.53235572577
0.00000000000 0.46729800105 0.53270196915
0.00000000000 0.46727418900 0.53272581100
0.00000000000 0.46749961376 0.53250032663
0.00000000000 0.46749860048 0.53250145912
0.00000000000 0.46726608276 0.53273391724
0.00000000000 0.46741196513 0.53258806467
1.00000000000 0.46735143661 0.53264856339
0.00000000000 0.46716475487 0.53283530474
0.00000000000 0.46722018719 0.53277975321
1.00000000000 0.46732875705 0.53267127275
0.00000000000 0.46729549766 0.53270453215
0.00000000000 0.46734592319 0.53265404701
1.00000000000 0.46766459942 0.53233540058
0.00000000000 0.46732634306 0.53267365694
1.00000000000 0.46769592166 0.53230404854
0.00000000000 0.46707299352 0.53292703629
0.00000000000 0.46720042825 0.53279960155
0.00000000000 0.46726256609 0.53273743391
0.00000000000 0.46721741557 0.53278261423
0.00000000000 0.46736541390 0.53263455629
0.00000000000 0.46719974279 0.53280019760
0.00000000000 0.46715599298 0.53284400702
0.00000000000 0.46776652336 0.53223353624
0.00000000000 0.46754372120 0.53245627880
0.00000000000 0.46770566702 0.53229439259
0.00000000000 0.46733823419 0.53266179562
0.00000000000 0.46765837073 0.53234165907
1.00000000000 0.46737107635 0.53262895346
0.00000000000 0.46696865559 0.53303134441
0.00000000000 0.46740752459 0.53259247541
0.00000000000 0.46721920371 0.53278076649
0.00000000000 0.46754497290 0.53245502710
0.00000000000 0.46731552482 0.53268450499
0.00000000000 0.46739351749 0.53260648251
0.00000000000 0.46763047576 0.53236955404
0.00000000000 0.46721041203 0.53278958797
0.00000000000 0.46725901961 0.53274095058
0.00000000000 0.46728163958 0.53271836042
0.00000000000 0.46716293693 0.53283709288
0.00000000000 0.46738561988 0.53261440992
0.00000000000 0.46691873670 0.53308123350
0.00000000000 0.46725875139 0.53274118900
0.00000000000 0.46718177199 0.53281819820
0.00000000000 0.46719691157 0.53280311823
0.00000000000 0.46712279320 0.53287720680
0.00000000000 0.46732100844 0.53267902136
0.00000000000 0.46725088358 0.53274911642
0.00000000000 0.46803328395 0.53196668625
0.00000000000 0.46732828021 0.53267174959
0.00000000000 0.46767285466 0.53232711554
0.00000000000 0.46699565649 0.53300434351
0.00000000000 0.46704214811 0.53295791149
0.00000000000 0.46803933382 0.53196066618
0.00000000000 0.46744191647 0.53255808353
0.00000000000 0.46769484878 0.53230512142
0.00000000000 0.46720725298 0.53279268742
0.00000000000 0.46754017472 0.53245979548
0.00000000000 0.46716171503 0.53283828497
0.00000000000 0.46768546104 0.53231453896
0.00000000000 0.46757909656 0.53242087364
0.00000000000 0.46734482050 0.53265517950
1.00000000000 0.46740102768 0.53259897232
0.00000000000 0.46723344922 0.53276652098
0.00000000000 0.46701341867 0.53298658133
1.00000000000 0.46757194400 0.53242802620
1.00000000000 0.46698260307 0.53301733732
0.00000000000 0.46720165014 0.53279834986
0.00000000000 0.46727728844 0.53272271156
0.00000000000 0.46717298031 0.53282701969
0.00000000000 0.46703717113 0.53296285868
0.00000000000 0.46707686782 0.53292310238
1.00000000000 0.46763667464 0.53236329556
0.00000000000 0.46774104238 0.53225892782
0.00000000000 0.46761119366 0.53238880634
0.00000000000 0.46746391058 0.53253608942
0.00000000000 0.46748116612 0.53251886368
0.00000000000 0.46724122763 0.53275877237
1.00000000000 0.46745780110 0.53254222870
0.00000000000 0.46715736389 0.53284263611
0.00000000000 0.46783223748 0.53216773272
0.00000000000 0.46756538749 0.53243458271
0.00000000000 0.46700319648 0.53299683332
0.00000000000 0.46722987294 0.53277015686
0.00000000000 0.46710768342 0.53289228678
0.00000000000 0.46706807613 0.53293186426
0.00000000000 0.46718621254 0.53281384706
0.00000000000 0.46717789769 0.53282207251
0.00000000000 0.46756735444 0.53243267536
0.00000000000 0.46746188402 0.53253811598
0.00000000000 0.46702155471 0.53297841549
0.00000000000 0.46694579720 0.53305423260
1.00000000000 0.46728494763 0.53271502256
0.00000000000 0.46716225147 0.53283774853
0.00000000000 0.46704116464 0.53295886517
0.00000000000 0.46741941571 0.53258061409
1.00000000000 0.46796140075 0.53203862906
0.00000000000 0.46723935008 0.53276067972
0.00000000000 0.46706205606 0.53293794394
0.00000000000 0.46701857448 0.53298145533
0.00000000000 0.46756586432 0.53243416548
0.00000000000 0.46736282110 0.53263723850
0.00000000000 0.46713262796 0.53286737204
0.00000000000 0.46769905090 0.53230094910
1.00000000000 0.46757337451 0.53242659569
0.00000000000 0.46737191081 0.53262811899
0.00000000000 0.46752226353 0.53247773647
1.00000000000 0.46788498759 0.53211504221
0.00000000000 0.46741920710 0.53258079290
1.00000000000 0.46760389209 0.53239613771
0.00000000000 0.46728724241 0.53271275759
0.00000000000 0.46770194173 0.53229802847
0.00000000000 0.46800646186 0.53199350834
0.00000000000 0.46741640568 0.53258359432
0.00000000000 0.46721902490 0.53278100491
0.00000000000 0.46726885438 0.53273117542
0.00000000000 0.46718874574 0.53281122446
0.00000000000 0.46718350053 0.53281646967
0.00000000000 0.46724563837 0.53275442123
1.00000000000 0.46780726314 0.53219270706
0.00000000000 0.46748894453 0.53251105547
0.00000000000 0.46750345826 0.53249651194
0.00000000000 0.46740582585 0.53259414434
0.00000000000 0.46761161089 0.53238832951
0.00000000000 0.46712353826 0.53287649155
0.00000000000 0.46748775244 0.53251224756
0.00000000000 0.46760040522 0.53239959478
0.00000000000 0.46715107560 0.53284889460
0.00000000000 0.46779933572 0.53220063448
0.00000000000 0.46780630946 0.53219372034
1.00000000000 0.46767517924 0.53232485056
0.00000000000 0.46734157205 0.53265845776
0.00000000000 0.46707418561 0.53292578459
0.00000000000 0.46738627553 0.53261369467
0.00000000000 0.46735382080 0.53264623880
0.00000000000 0.46717438102 0.53282558918
0.00000000000 0.46770903468 0.53229099512
0.00000000000 0.46754023433 0.53245973587
0.00000000000 0.46709629893 0.53290367126
0.00000000000 0.46771383286 0.53228616714
0.00000000000 0.46697285771 0.53302717209
0.00000000000 0.46772876382 0.53227126598
0.00000000000 0.46705073118 0.53294926882
0.00000000000 0.46738708019 0.53261291981
0.00000000000 0.46713978052 0.53286021948
0.00000000000 0.46715936065 0.53284060955
1.00000000000 0.46714240313 0.53285759687
0.00000000000 0.46748128533 0.53251874447
0.00000000000 0.46778213978 0.53221786022
0.00000000000 0.46718987823 0.53281009197
0.00000000000 0.46755984426 0.53244018555
0.00000000000 0.46717038751 0.53282964230
0.00000000000 0.46748560667 0.53251439333
0.00000000000 0.46782824397 0.53217178583
0.00000000000 0.46743354201 0.53256642818
0.00000000000 0.46696290374 0.53303706646
0.00000000000 0.46757969260 0.53242033720
0.00000000000 0.46795642376 0.53204357624
0.00000000000 0.46742817760 0.53257179260
0.00000000000 0.46808463335 0.53191530704
0.00000000000 0.46742516756 0.53257477283
0.00000000000 0.46721863747 0.53278136253
0.00000000000 0.46757909656 0.53242093325
0.00000000000 0.46722850204 0.53277146816
0.00000000000 0.46730652452 0.53269344568
0.00000000000 0.46715793014 0.53284209967
0.00000000000 0.46728891134 0.53271108866
0.00000000000 0.46750622988 0.53249371052
0.00000000000 0.46712973714 0.53287029266
0.00000000000 0.46744081378 0.53255915642
0.00000000000 0.46734565496 0.53265434504
0.00000000000 0.46696743369 0.53303259611
0.00000000000 0.46701091528 0.53298908472
0.00000000000 0.46742093563 0.53257906437
0.00000000000 0.46811527014 0.53188472986
0.00000000000 0.46753275394 0.53246724606
0.00000000000 0.46774002910 0.53225994110
0.00000000000 0.46746730804 0.53253269196
0.00000000000 0.46697536111 0.53302466869
0.00000000000 0.46703848243 0.53296148777
0.00000000000 0.46740785241 0.53259211779
0.00000000000 0.46700564027 0.53299432993
0.00000000000 0.46707651019 0.53292351961
1.00000000000 0.46725383401 0.53274619579
0.00000000000 0.46712318063 0.53287678957
0.00000000000 0.46737396717 0.53262597322
0.00000000000 0.46704775095 0.53295224905
0.00000000000 0.46708953381 0.53291046619
0.00000000000 0.46742716432 0.53257286549
0.00000000000 0.46716666222 0.53283333778
0.00000000000 0.46743077040 0.53256917000
0.00000000000 0.46715596318 0.53284406662
0.00000000000 0.46732783318 0.53267216682
0.00000000000 0.46703046560 0.53296953440
0.00000000000 0.46706083417 0.53293919563
0.00000000000 0.46738708019 0.53261291981
0.00000000000 0.46721112728 0.53278893232
0.00000000000 0.46748971939 0.53251028061
1.00000000000 0.46703773737 0.53296232224
1.00000000000 0.46764445305 0.53235548735
0.00000000000 0.46822011471 0.53177982569
0.00000000000 0.46712416410 0.53287583590
0.00000000000 0.46729806066 0.53270196915
1.00000000000 0.46718242764 0.53281760216
1.00000000000 0.46733194590 0.53266805410
0.00000000000 0.46704486012 0.53295516968
0.00000000000 0.46773165464 0.53226834536
0.00000000000 0.46732959151 0.53267037868
0.00000000000 0.46730205417 0.53269791603
0.00000000000 0.46715241671 0.53284758329
0.00000000000 0.46713957191 0.53286039829
0.00000000000 0.46709406376 0.53290593624
0.00000000000 0.46725052595 0.53274947405
0.00000000000 0.46713545918 0.53286457062
0.00000000000 0.46739473939 0.53260523081
0.00000000000 0.46735414863 0.53264582157
0.00000000000 0.46720001101 0.53279995918
0.00000000000 0.46721571684 0.53278422356
1.00000000000 0.46785452962 0.53214544058
0.00000000000 0.46707260609 0.53292733431
0.00000000000 0.46704539657 0.53295463324
0.00000000000 0.46704378724 0.53295618296
0.00000000000 0.46707531810 0.53292465210
0.00000000000 0.46719920635 0.53280073404
1.00000000000 0.46833428741 0.53166574240
0.00000000000 0.46706712246 0.53293287754
0.00000000000 0.46748039126 0.53251963854
0.00000000000 0.46747520566 0.53252476454
0.00000000000 0.46710810065 0.53289192915
1.00000000000 0.46775409579 0.53224587440
1.00000000000 0.46739920974 0.53260076046
0.00000000000 0.46733155847 0.53266841173
1.00000000000 0.46725991368 0.53274011612
0.00000000000 0.46695348620 0.53304654360
0.00000000000 0.46716430783 0.53283566236
0.00000000000 0.46731328964 0.53268665075
0.00000000000 0.46733072400 0.53266930580
0.00000000000 0.46749880910 0.53250122070
0.00000000000 0.46769541502 0.53230458498
0.00000000000 0.46722999215 0.53276997805
0.00000000000 0.46763557196 0.53236442804
0.00000000000 0.46718302369 0.53281700611
1.00000000000 0.46729823947 0.53270173073
0.00000000000 0.46732363105 0.53267633915
0.00000000000 0.46714127064 0.53285878897
0.00000000000 0.46812963486 0.53187042475
0.00000000000 0.46701282263 0.53298723698
0.00000000000 0.46786099672 0.53213900328
0.00000000000 0.46727162600 0.53272843361
0.00000000000 0.46752023697 0.53247982264
1.00000000000 0.46788609028 0.53211390972
0.00000000000 0.46750149131 0.53249847889
0.00000000000 0.46795293689 0.53204709291
0.00000000000 0.46716821194 0.53283178806
0.00000000000 0.46772748232 0.53227251768
1.00000000000 0.46733263135 0.53266733885
0.00000000000 0.46734535694 0.53265470266
0.00000000000 0.46719285846 0.53280717134
0.00000000000 0.46710273623 0.53289723396
0.00000000000 0.46716889739 0.53283113241
0.00000000000 0.46749967337 0.53250026703
0.00000000000 0.46768546104 0.53231453896
0.00000000000 0.46732130647 0.53267866373
1.00000000000 0.46739107370 0.53260892630
0.00000000000 0.46711844206 0.53288155794
0.00000000000 0.46741986275 0.53258013725
0.00000000000 0.46721023321 0.53278976679
0.00000000000 0.46748864651 0.53251135349
0.00000000000 0.46733847260 0.53266155720
0.00000000000 0.46712553501 0.53287446499
1.00000000000 0.46716263890 0.53283739090
0.00000000000 0.46715375781 0.53284627199
0.00000000000 0.46725383401 0.53274619579
0.00000000000 0.46722719073 0.53277277946
0.00000000000 0.46731394529 0.53268605471
0.00000000000 0.46716204286 0.53283792734
0.00000000000 0.46719866991 0.53280127048
0.00000000000 0.46692264080 0.53307735920
0.00000000000 0.46776416898 0.53223586082
0.00000000000 0.46741375327 0.53258621693
0.00000000000 0.46718135476 0.53281867504
0.00000000000 0.46721491218 0.53278505802
1.00000000000 0.46795386076 0.53204607964
0.00000000000 0.46715319157 0.53284680843
0.00000000000 0.46718242764 0.53281760216
0.00000000000 0.46710261703 0.53289741278
0.00000000000 0.46697935462 0.53302061558
0.00000000000 0.46748548746 0.53251451254
0.00000000000 0.46713337302 0.53286659718
0.00000000000 0.46735316515 0.53264683485
0.00000000000 0.46753367782 0.53246629238
1.00000000000 0.46736907959 0.53263092041
1.00000000000 0.46733102202 0.53266900778
0.00000000000 0.46700784564 0.53299218416
0.00000000000 0.46733936667 0.53266060352
0.00000000000 0.46758276224 0.53241723776
0.00000000000 0.46735763550 0.53264236450
0.00000000000 0.46725723147 0.53274273872
0.00000000000 0.46779224277 0.53220772743
0.00000000000 0.46738737822 0.53261262178
0.00000000000 0.46733209491 0.53266793489
0.00000000000 0.46749365330 0.53250634670
0.00000000000 0.46740779281 0.53259223700
1.00000000000 0.46765667200 0.53234332800
0.00000000000 0.46749764681 0.53250229359
0.00000000000 0.46722742915 0.53277254105
0.00000000000 0.46716171503 0.53283828497
0.00000000000 0.46726247668 0.53273755312
0.00000000000 0.46720224619 0.53279775381
1.00000000000 0.46799996495 0.53200006485
0.00000000000 0.46810361743 0.53189635277
0.00000000000 0.46751913428 0.53248089552
0.00000000000 0.46721965075 0.53278034925
0.00000000000 0.46715837717 0.53284162283
0.00000000000 0.46738663316 0.53261339664
0.00000000000 0.46711453795 0.53288549185
0.00000000000 0.46709826589 0.53290170431
0.00000000000 0.46738538146 0.53261464834
1.00000000000 0.46734625101 0.53265374899
0.00000000000 0.46707895398 0.53292107582
0.00000000000 0.46755626798 0.53244376183
0.00000000000 0.46740862727 0.53259134293
0.00000000000 0.46716636419 0.53283363581
0.00000000000 0.46734002233 0.53265994787
0.00000000000 0.46760728955 0.53239268064
0.00000000000 0.46741414070 0.53258579969
0.00000000000 0.46737852693 0.53262144327
0.00000000000 0.46773692966 0.53226304054
0.00000000000 0.46749034524 0.53250968456
0.00000000000 0.46781754494 0.53218245506
0.00000000000 0.46774354577 0.53225648403
0.00000000000 0.46710816026 0.53289180994
0.00000000000 0.46728020906 0.53271985054
1.00000000000 0.46753659844 0.53246343136
0.00000000000 0.46720039845 0.53279960155
1.00000000000 0.46700048447 0.53299951553
0.00000000000 0.46744906902 0.53255093098
1.00000000000 0.46815389395 0.53184604645
0.00000000000 0.46775022149 0.53224980831
0.00000000000 0.46759727597 0.53240269423
0.00000000000 0.46705135703 0.53294867277
0.00000000000 0.46739906073 0.53260093927
0.00000000000 0.46698427200 0.53301572800
0.00000000000 0.46722459793 0.53277540207
0.00000000000 0.46719956398 0.53280043602
0.00000000000 0.46705061197 0.53294938803
0.00000000000 0.46723455191 0.53276544809
0.00000000000 0.46720346808 0.53279656172
0.00000000000 0.46729612350 0.53270393610
0.00000000000 0.46793502569 0.53206497431
0.00000000000 0.46741515398 0.53258484602
0.00000000000 0.46726161242 0.53273844719
1.00000000000 0.46706378460 0.53293621540
1.00000000000 0.46768417954 0.53231585026
1.00000000000 0.46744114161 0.53255885839
0.00000000000 0.46742284298 0.53257715702
0.00000000000 0.46728378534 0.53271615505
0.00000000000 0.46743229032 0.53256767988
0.00000000000 0.46740704775 0.53259289265
0.00000000000 0.46718358994 0.53281641006
1.00000000000 0.46754327416 0.53245669603
0.00000000000 0.46716549993 0.53283447027
1.00000000000 0.46755009890 0.53244990110
1.00000000000 0.46757045388 0.53242957592
0.00000000000 0.46740737557 0.53259259462
0.00000000000 0.46782985330 0.53217011690
0.00000000000 0.46731770039 0.53268229961
0.00000000000 0.46708154678 0.53291845322
0.00000000000 0.46736782789 0.53263217211
0.00000000000 0.46764901280 0.53235101700
0.00000000000 0.46739262342 0.53260737658
0.00000000000 0.46716189384 0.53283810616
0.00000000000 0.46728497744 0.53271502256
0.00000000000 0.46753114462 0.53246885538
0.00000000000 0.46739330888 0.53260672092
0.00000000000 0.46726390719 0.53273612261
1.00000000000 0.46740502119 0.53259497881
0.00000000000 0.46726262569 0.53273737431
0.00000000000 0.46715086699 0.53284913301
0.00000000000 0.46730127931 0.53269869089
1.00000000000 0.46701681614 0.53298324347
0.00000000000 0.46738243103 0.53261762857
0.00000000000 0.46697679162 0.53302323818
0.00000000000 0.46744376421 0.53255629539
0.00000000000 0.46712604165 0.53287398815
0.00000000000 0.46718752384 0.53281247616
0.00000000000 0.46711242199 0.53288757801
1.00000000000 0.46718350053 0.53281646967
0.00000000000 0.46718221903 0.53281772137
0.00000000000 0.46704247594 0.53295749426
1.00000000000 0.46766871214 0.53233128786
0.00000000000 0.46710437536 0.53289562464
0.00000000000 0.46714910865 0.53285092115
0.00000000000 0.46700298786 0.53299701214
1.00000000000 0.46727839112 0.53272163868
0.00000000000 0.46712759137 0.53287243843
0.00000000000 0.46718412638 0.53281587362
0.00000000000 0.46704789996 0.53295212984
0.00000000000 0.46778535843 0.53221470118
0.00000000000 0.46712648869 0.53287351131
0.00000000000 0.46752035618 0.53247964382
1.00000000000 0.46730118990 0.53269881010
0.00000000000 0.46752491593 0.53247505426
0.00000000000 0.46727114916 0.53272885084
0.00000000000 0.46755629778 0.53244370222
0.00000000000 0.46753421426 0.53246581554
0.00000000000 0.46714502573 0.53285497427
0.00000000000 0.46734365821 0.53265631199
1.00000000000 0.46716144681 0.53283858299
0.00000000000 0.46736231446 0.53263771534
0.00000000000 0.46752578020 0.53247421980
0.00000000000 0.46721622348 0.53278374672
1.00000000000 0.46746554971 0.53253448009
0.00000000000 0.46778064966 0.53221935034
1.00000000000 0.46717065573 0.53282934427
1.00000000000 0.46739256382 0.53260743618
1.00000000000 0.46784463525 0.53215539455
0.00000000000 0.46726933122 0.53273069859
0.00000000000 0.46783956885 0.53216046095
0.00000000000 0.46734121442 0.53265881538
0.00000000000 0.46751406789 0.53248596191
0.00000000000 0.46724715829 0.53275287151
0.00000000000 0.46729990840 0.53270012140
0.00000000000 0.46702432632 0.53297561407
0.00000000000 0.46736711264 0.53263288736
0.00000000000 0.46789902449 0.53210097551
1.00000000000 0.46733412147 0.53266584873
1.00000000000 0.46764710546 0.53235286474
0.00000000000 0.46714696288 0.53285306692
0.00000000000 0.46815899014 0.53184098005
0.00000000000 0.46708831191 0.53291165829
0.00000000000 0.46734935045 0.53265064955
0.00000000000 0.46709534526 0.53290468454
0.00000000000 0.46713635325 0.53286361694
1.00000000000 0.46749874949 0.53250122070
0.00000000000 0.46737188101 0.53262811899
0.00000000000 0.46795603633 0.53204393387
0.00000000000 0.46731930971 0.53268069029
1.00000000000 0.46774351597 0.53225648403
0.00000000000 0.46723377705 0.53276622295
0.00000000000 0.46729022264 0.53270983696
0.00000000000 0.46763566136 0.53236430883
0.00000000000 0.46712252498 0.53287750483
0.00000000000 0.46705210209 0.53294789791
0.00000000000 0.46748960018 0.53251034021
0.00000000000 0.46739181876 0.53260815144
0.00000000000 0.46756869555 0.53243136406
0.00000000000 0.46722885966 0.53277117014
0.00000000000 0.46727815270 0.53272187710
0.00000000000 0.46722650528 0.53277349472
0.00000000000 0.46760612726 0.53239387274
0.00000000000 0.46758064628 0.53241932392
0.00000000000 0.46769019961 0.53230977058
0.00000000000 0.46710643172 0.53289353848
0.00000000000 0.46725597978 0.53274399042
0.00000000000 0.46779286861 0.53220713139
0.00000000000 0.46731275320 0.53268718719
1.00000000000 0.46806663275 0.53193336725
0.00000000000 0.46722948551 0.53277051449
1.00000000000 0.46792384982 0.53207612038
0.00000000000 0.46753701568 0.53246295452
0.00000000000 0.46817520261 0.53182482719
0.00000000000 0.46820434928 0.53179568052
0.00000000000 0.46737486124 0.53262513876
1.00000000000 0.46692946553 0.53307056427
0.00000000000 0.46758735180 0.53241270781
0.00000000000 0.46705746651 0.53294253349
0.00000000000 0.46730881929 0.53269112110
0.00000000000 0.46727910638 0.53272092342
0.00000000000 0.46721440554 0.53278559446
0.00000000000 0.46748417616 0.53251582384
1.00000000000 0.46714299917 0.53285700083
0.00000000000 0.46755331755 0.53244668245
0.00000000000 0.46731323004 0.53268671036
1.00000000000 0.46760648489 0.53239351511
0.00000000000 0.46751138568 0.53248864412
0.00000000000 0.46719577909 0.53280419111
0.00000000000 0.46767729521 0.53232270479
0.00000000000 0.46701824665 0.53298175335
0.00000000000 0.46782654524 0.53217339516
0.00000000000 0.46716699004 0.53283298016
0.00000000000 0.46752578020 0.53247421980
0.00000000000 0.46719193459 0.53280806541
0.00000000000 0.46709191799 0.53290808201
0.00000000000 0.46731147170 0.53268849850
0.00000000000 0.46702978015 0.53297019005
0.00000000000 0.46708178520 0.53291821480
0.00000000000 0.46752652526 0.53247350454
0.00000000000 0.46753042936 0.53246957064
0.00000000000 0.46766641736 0.53233355284
0.00000000000 0.46721896529 0.53278100491
0.00000000000 0.46753826737 0.53246170282
0.00000000000 0.46745273471 0.53254729509
0.00000000000 0.46727505326 0.53272497654
0.00000000000 0.46701362729 0.53298634291
0.00000000000 0.46743273735 0.53256720304
0.00000000000 0.46725964546 0.53274035454
0.00000000000 0.46728572249 0.53271424770
0.00000000000 0.46796628833 0.53203368187
0.00000000000 0.46807813644 0.53192186356
0.00000000000 0.46793204546 0.53206795454
0.00000000000 0.46715596318 0.53284406662
0.00000000000 0.46732327342 0.53267669678
0.00000000000 0.46712887287 0.53287106752
0.00000000000 0.46725031734 0.53274971247
1.00000000000 0.46727073193 0.53272920847
0.00000000000 0.46749013662 0.53250986338
0.00000000000 0.46711796522 0.53288203478
0.00000000000 0.46707552671 0.53292441368
0.00000000000 0.46699866652 0.53300136328
0.00000000000 0.46766301990 0.53233695030
0.00000000000 0.46730172634 0.53269827366
0.00000000000 0.46803033352 0.53196972609
0.00000000000 0.46762636304 0.53237360716
0.00000000000 0.46755135059 0.53244864941
0.00000000000 0.46717247367 0.53282755613
0.00000000000 0.46791735291 0.53208261728
0.00000000000 0.46716171503 0.53283828497
0.00000000000 0.46692305803 0.53307688236
0.00000000000 0.46744099259 0.53255903721
0.00000000000 0.46752515435 0.53247481585
1.00000000000 0.46706557274 0.53293436766
0.00000000000 0.46772602201 0.53227394819
0.00000000000 0.46815168858 0.53184831142
0.00000000000 0.46706241369 0.53293758631
0.00000000000 0.46714836359 0.53285157681
0.00000000000 0.46692040563 0.53307962418
0.00000000000 0.46744796634 0.53255200386
1.00000000000 0.46777009964 0.53222995996
1.00000000000 0.46741902828 0.53258097172
0.00000000000 0.46710923314 0.53289073706
0.00000000000 0.46752861142 0.53247141838
1.00000000000 0.46741217375 0.53258782625
0.00000000000 0.46720790863 0.53279209137
0.00000000000 0.46708515286 0.53291487694
0.00000000000 0.46732559800 0.53267443180
0.00000000000 0.46753466129 0.53246533871
0.00000000000 0.46702927351 0.53297072649
0.00000000000 0.46722525358 0.53277468681
0.00000000000 0.46734583378 0.53265422583
0.00000000000 0.46712142229 0.53287857771
1.00000000000 0.46725764871 0.53274238110
1.00000000000 0.46767431498 0.53232574463
0.00000000000 0.46755573153 0.53244423866
0.00000000000 0.46736493707 0.53263503313
0.00000000000 0.46722412109 0.53277587891
0.00000000000 0.46767702699 0.53232300282
0.00000000000 0.46713688970 0.53286308050
0.00000000000 0.46739089489 0.53260910511
0.00000000000 0.46735516191 0.53264486790
0.00000000000 0.46702057123 0.53297942877
0.00000000000 0.46709361672 0.53290641308
1.00000000000 0.46765619516 0.53234380484
0.00000000000 0.46780568361 0.53219425678
0.00000000000 0.46744588017 0.53255409002
0.00000000000 0.46750080585 0.53249919415
0.00000000000 0.46731445193 0.53268557787
0.00000000000 0.46777814627 0.53222191334
0.00000000000 0.46705690026 0.53294306993
0.00000000000 0.46733075380 0.53266930580
0.00000000000 0.46717879176 0.53282117844
0.00000000000 0.46822246909 0.53177756071
0.00000000000 0.46695822477 0.53304183483
0.00000000000 0.46772950888 0.53227055073
1.00000000000 0.46708109975 0.53291887045
0.00000000000 0.46725717187 0.53274285793
0.00000000000 0.46723899245 0.53276097775
0.00000000000 0.46706056595 0.53293943405
1.00000000000 0.46724516153 0.53275489807
1.00000000000 0.46722671390 0.53277325630
0.00000000000 0.46718889475 0.53281110525
0.00000000000 0.46720463037 0.53279536963
0.00000000000 0.46718922257 0.53281074762
0.00000000000 0.46739947796 0.53260058165
1.00000000000 0.46783646941 0.53216350079
0.00000000000 0.46712651849 0.53287345171
0.00000000000 0.46739798784 0.53260201216
0.00000000000 0.46770817041 0.53229182959
0.00000000000 0.46733638644 0.53266358376
0.00000000000 0.46737667918 0.53262335062
0.00000000000 0.46755591035 0.53244411945
0.00000000000 0.46774154902 0.53225845098
0.00000000000 0.46715021133 0.53284978867
0.00000000000 0.46746805310 0.53253197670
0.00000000000 0.46811398864 0.53188598156
1.00000000000 0.46733763814 0.53266233206
0.00000000000 0.46719440818 0.53280556202
0.00000000000 0.46706634760 0.53293365240
1.00000000000 0.46707397699 0.53292602301
0.00000000000 0.46716389060 0.53283613920
0.00000000000 0.46818053722 0.53181952238
0.00000000000 0.46757003665 0.53242999315
0.00000000000 0.46725624800 0.53274375200
1.00000000000 0.46761471033 0.53238528967
0.00000000000 0.46714714170 0.53285282850
0.00000000000 0.46773037314 0.53226959705
0.00000000000 0.46745532751 0.53254467249
0.00000000000 0.46734753251 0.53265243769
0.00000000000 0.46721518040 0.53278476000
1.00000000000 0.46763470769 0.53236532211
0.00000000000 0.46757972240 0.53242027760
1.00000000000 0.46768403053 0.53231596947
0.00000000000 0.46752926707 0.53247076273
0.00000000000 0.46711859107 0.53288143873
0.00000000000 0.46760079265 0.53239923716
0.00000000000 0.46723482013 0.53276520967
1.00000000000 0.46755525470 0.53244477510
0.00000000000 0.46720886230 0.53279113770
0.00000000000 0.46721670032 0.53278326988
0.00000000000 0.46721774340 0.53278219700
0.00000000000 0.46709263325 0.53290736675
0.00000000000 0.46770471334 0.53229522705
0.00000000000 0.46717298031 0.53282701969
0.00000000000 0.46711906791 0.53288096189
0.00000000000 0.46723547578 0.53276449442
0.00000000000 0.46731659770 0.53268337250
0.00000000000 0.46730977297 0.53269016743
0.00000000000 0.46734797955 0.53265202045
0.00000000000 0.46750128269 0.53249871731
0.00000000000 0.46764135361 0.53235864639
0.00000000000 0.46750676632 0.53249323368
0.00000000000 0.46718674898 0.53281325102
1.00000000000 0.46732777357 0.53267228603
0.00000000000 0.46708491445 0.53291511536
0.00000000000 0.46702870727 0.53297132254
0.00000000000 0.46697592735 0.53302407265
0.00000000000 0.46728426218 0.53271573782
0.00000000000 0.46751719713 0.53248280287
0.00000000000 0.46786436439 0.53213560581
1.00000000000 0.46773195267 0.53226804733
0.00000000000 0.46762484312 0.53237515688
0.00000000000 0.46758198738 0.53241801262
0.00000000000 0.46718174219 0.53281819820
0.00000000000 0.46708658338 0.53291338682
0.00000000000 0.46754193306 0.53245800734
1.00000000000 0.46729341149 0.53270661831
0.00000000000 0.46727573872 0.53272420168
0.00000000000 0.46747991443 0.53252011538
0.00000000000 0.46719297767 0.53280705214
0.00000000000 0.46731591225 0.53268408775
1.00000000000 0.46736472845 0.53263527155
0.00000000000 0.46801021695 0.53198975325
0.00000000000 0.46735435724 0.53264570236
1.00000000000 0.46746987104 0.53253018856
0.00000000000 0.46725267172 0.53274738789
0.00000000000 0.46695157886 0.53304839134
0.00000000000 0.46713212132 0.53286784887
0.00000000000 0.46695312858 0.53304690123
0.00000000000 0.46738398075 0.53261601925
0.00000000000 0.46714869142 0.53285133839
1.00000000000 0.46743544936 0.53256458044
1.00000000000 0.46753475070 0.53246521950
0.00000000000 0.46712994576 0.53287005424
1.00000000000 0.46719804406 0.53280198574
0.00000000000 0.46767112613 0.53232884407
0.00000000000 0.46762868762 0.53237134218
0.00000000000 0.46736389399 0.53263616562
0.00000000000 0.46764141321 0.53235858679
1.00000000000 0.46729171276 0.53270822763
0.00000000000 0.46698755026 0.53301239014
0.00000000000 0.46716183424 0.53283816576
0.00000000000 0.46727418900 0.53272587061
0.00000000000 0.46771815419 0.53228187561
0.00000000000 0.46744906902 0.53255093098
0.00000000000 0.46719735861 0.53280264139
0.00000000000 0.46739569306 0.53260433674
0.00000000000 0.46732234955 0.53267759085
0.00000000000 0.46746897697 0.53253102303
0.00000000000 0.46715340018 0.53284657001
0.00000000000 0.46777212620 0.53222781420
0.00000000000 0.46739020944 0.53260982037
0.00000000000 0.46720468998 0.53279536963
0.00000000000 0.46699711680 0.53300291300
1.00000000000 0.46731078625 0.53268921375
1.00000000000 0.46757242084 0.53242754936
0.00000000000 0.46707284451 0.53292715549
1.00000000000 0.46719649434 0.53280347586
0.00000000000 0.46747744083 0.53252255917
0.00000000000 0.46775823832 0.53224176168
0.00000000000 0.46725323796 0.53274673223
0.00000000000 0.46762871742 0.53237134218
0.00000000000 0.46762722731 0.53237277269
1.00000000000 0.46722093225 0.53277903795
0.00000000000 0.46739453077 0.53260546923
0.00000000000 0.46728265285 0.53271740675
1.00000000000 0.46735295653 0.53264701366
0.00000000000 0.46703875065 0.53296124935
0.00000000000 0.46746256948 0.53253746033
0.00000000000 0.46717306972 0.53282690048
0.00000000000 0.46704909205 0.53295093775
0.00000000000 0.46718305349 0.53281694651
1.00000000000 0.46768468618 0.53231531382
0.00000000000 0.46692782640 0.53307217360
0.00000000000 0.46724581718 0.53275418282
0.00000000000 0.46767076850 0.53232926130
0.00000000000 0.46719035506 0.53280961514
0.00000000000 0.46746209264 0.53253787756
0.00000000000 0.46770966053 0.53229033947
0.00000000000 0.46719074249 0.53280919790
0.00000000000 0.46731281281 0.53268718719
0.00000000000 0.46737101674 0.53262895346
0.00000000000 0.46702450514 0.53297549486
0.00000000000 0.46756154299 0.53243845701
0.00000000000 0.46716076136 0.53283923864
0.00000000000 0.46732479334 0.53267520666
0.00000000000 0.46714806557 0.53285193443
0.00000000000 0.46706059575 0.53293943405
0.00000000000 0.46717470884 0.53282529116
0.00000000000 0.46729263663 0.53270739317
0.00000000000 0.46751570702 0.53248429298
0.00000000000 0.46746757627 0.53253239393
0.00000000000 0.46708443761 0.53291559219
1.00000000000 0.46740698814 0.53259307146
0.00000000000 0.46751028299 0.53248971701
0.00000000000 0.46735137701 0.53264868259
0.00000000000 0.46736335754 0.53263664246
0.00000000000 0.46719035506 0.53280961514
0.00000000000 0.46745890379 0.53254109621
0.00000000000 0.46698626876 0.53301376104
0.00000000000 0.46725240350 0.53274762630
0.00000000000 0.46755608916 0.53244388103
0.00000000000 0.46721005440 0.53278994560
0.00000000000 0.46706104279 0.53293895721
0.00000000000 0.46726527810 0.53273469210
0.00000000000 0.46714201570 0.53285801411
0.00000000000 0.46702250838 0.53297752142
0.00000000000 0.46701502800 0.53298497200
0.00000000000 0.46717804670 0.53282195330
0.00000000000 0.46765434742 0.53234565258
1.00000000000 0.46750244498 0.53249758482
0.00000000000 0.46734413505 0.53265583515
0.00000000000 0.46723940969 0.53276056051
0.00000000000 0.46719944477 0.53280055523
0.00000000000 0.46785578132 0.53214424849
0.00000000000 0.46703159809 0.53296840191
1.00000000000 0.46722242236 0.53277754784
0.00000000000 0.46706232429 0.53293770552
0.00000000000 0.46736270189 0.53263729811
0.00000000000 0.46727535129 0.53272467852
0.00000000000 0.46716681123 0.53283315897
1.00000000000 0.46785229445 0.53214770555
0.00000000000 0.46788367629 0.53211629391
0.00000000000 0.46772661805 0.53227335215
0.00000000000 0.46766057611 0.53233945370
0.00000000000 0.46702730656 0.53297263384
0.00000000000 0.46788480878 0.53211522102
0.00000000000 0.46798551083 0.53201448917
0.00000000000 0.46746486425 0.53253513575
0.00000000000 0.46720400453 0.53279596567
0.00000000000 0.46734327078 0.53265672922
1.00000000000 0.46756285429 0.53243714571
0.00000000000 0.46732079983 0.53267914057
0.00000000000 0.46743407845 0.53256595135
0.00000000000 0.46803230047 0.53196769953
0.00000000000 0.46709272265 0.53290724754
1.00000000000 0.46751517057 0.53248488903
0.00000000000 0.46815356612 0.53184646368
0.00000000000 0.46765831113 0.53234171867
0.00000000000 0.46731817722 0.53268188238
0.00000000000 0.46733129025 0.53266870975
0.00000000000 0.46729665995 0.53270334005
0.00000000000 0.46713820100 0.53286182880
0.00000000000 0.46702480316 0.53297519684
0.00000000000 0.46714606881 0.53285390139
1.00000000000 0.46725064516 0.53274941444
0.00000000000 0.46739208698 0.53260791302
0.00000000000 0.46718770266 0.53281235695
0.00000000000 0.46737319231 0.53262680769
0.00000000000 0.46707206964 0.53292793036
1.00000000000 0.46718722582 0.53281277418
0.00000000000 0.46753668785 0.53246331215
0.00000000000 0.46758282185 0.53241723776
0.00000000000 0.46773415804 0.53226578236
0.00000000000 0.46721091866 0.53278911114
0.00000000000 0.46740561724 0.53259438276
0.00000000000 0.46777036786 0.53222960234
0.00000000000 0.46710532904 0.53289467096
1.00000000000 0.46706616879 0.53293377161
0.00000000000 0.46722880006 0.53277117014
0.00000000000 0.46739649773 0.53260356188
0.00000000000 0.46743220091 0.53256779909
0.00000000000 0.46791112423 0.53208887577
0.00000000000 0.46739307046 0.53260689974
0.00000000000 0.46761763096 0.53238236904
1.00000000000 0.46789947152 0.53210055828
0.00000000000 0.46715864539 0.53284138441
0.00000000000 0.46705406904 0.53294599056
1.00000000000 0.46767181158 0.53232812881
0.00000000000 0.46783596277 0.53216403723
0.00000000000 0.46714052558 0.53285944462
0.00000000000 0.46728175879 0.53271824121
0.00000000000 0.46753916144 0.53246086836
0.00000000000 0.46728944778 0.53271055222
1.00000000000 0.46726563573 0.53273439407
0.00000000000 0.46715924144 0.53284078836
1.00000000000 0.46759688854 0.53240311146
0.00000000000 0.46694988012 0.53305011988
0.00000000000 0.46741408110 0.53258585930
0.00000000000 0.46725761890 0.53274244070
0.00000000000 0.46772733331 0.53227263689
0.00000000000 0.46805700660 0.53194296360
0.00000000000 0.46713739634 0.53286260366
0.00000000000 0.46721971035 0.53278023005
1.00000000000 0.46704810858 0.53295195103
1.00000000000 0.46776756644 0.53223246336
0.00000000000 0.46701395512 0.53298604488
0.00000000000 0.46738073230 0.53261929750
0.00000000000 0.46699747443 0.53300249577
0.00000000000 0.46770668030 0.53229331970
0.00000000000 0.46741765738 0.53258228302
0.00000000000 0.46711435914 0.53288567066
0.00000000000 0.46736598015 0.53263401985
0.00000000000 0.46706578135 0.53293418884
0.00000000000 0.46706238389 0.53293758631
0.00000000000 0.46698054671 0.53301948309
0.00000000000 0.46728190780 0.53271812201
0.00000000000 0.46743720770 0.53256273270
0.00000000000 0.46801531315 0.53198468685
1.00000000000 0.46728235483 0.53271764517
0.00000000000 0.46741113067 0.53258883953
0.00000000000 0.46709665656 0.53290331364
0.00000000000 0.46812376380 0.53187626600
0.00000000000 0.46729394794 0.53270608187
1.00000000000 0.46755531430 0.53244471550
1.00000000000 0.46741402149 0.53258603811
0.00000000000 0.46707972884 0.53292030096
0.00000000000 0.46696493030 0.53303509951
0.00000000000 0.46711215377 0.53288781643
1.00000000000 0.46697753668 0.53302246332
0.00000000000 0.46739250422 0.53260743618
0.00000000000 0.46724042296 0.53275954723
1.00000000000 0.46768471599 0.53231525421
0.00000000000 0.46749800444 0.53250199556
0.00000000000 0.46743866801 0.53256136179
0.00000000000 0.46712848544 0.53287148476
0.00000000000 0.46777978539 0.53222018480
0.00000000000 0.46732750535 0.53267246485
0.00000000000 0.46709629893 0.53290367126
1.00000000000 0.46741968393 0.53258031607
1.00000000000 0.46846592426 0.53153407574
1.00000000000 0.46810775995 0.53189218044
0.00000000000 0.46705460548 0.53294545412
0.00000000000 0.46717607975 0.53282392025
0.00000000000 0.46700632572 0.53299373388
0.00000000000 0.46730881929 0.53269112110
0.00000000000 0.46731215715 0.53268784285
0.00000000000 0.46752452850 0.53247547150
0.00000000000 0.46697801352 0.53302198648
0.00000000000 0.46745058894 0.53254938126
0.00000000000 0.46701464057 0.53298532963
1.00000000000 0.46801894903 0.53198105097
0.00000000000 0.46765998006 0.53233999014
0.00000000000 0.46783593297 0.53216403723
0.00000000000 0.46740654111 0.53259348869
0.00000000000 0.46725311875 0.53274691105
0.00000000000 0.46739953756 0.53260046244
0.00000000000 0.46710002422 0.53289997578
0.00000000000 0.46721747518 0.53278255463
1.00000000000 0.46732836962 0.53267163038
0.00000000000 0.46708369255 0.53291630745
1.00000000000 0.46702411771 0.53297585249
0.00000000000 0.46711844206 0.53288155794
0.00000000000 0.46788993478 0.53211009502
0.00000000000 0.46739646792 0.53260356188
1.00000000000 0.46806377172 0.53193622828
0.00000000000 0.46705290675 0.53294706345
0.00000000000 0.46699124575 0.53300875425
0.00000000000 0.46764600277 0.53235393763
0.00000000000 0.46730321646 0.53269684315
1.00000000000 0.46759578586 0.53240418434
1.00000000000 0.46784147620 0.53215855360
0.00000000000 0.46729990840 0.53270006180
0.00000000000 0.46723774076 0.53276222944
1.00000000000 0.46757599711 0.53242397308
0.00000000000 0.46737834811 0.53262168169
0.00000000000 0.46725752950 0.53274244070
0.00000000000 0.46711456776 0.53288543224
0.00000000000 0.46725797653 0.53274202347
0.00000000000 0.46702080965 0.53297924995
0.00000000000 0.46752181649 0.53247815371
1.00000000000 0.46734079719 0.53265923262
0.00000000000 0.46756890416 0.53243112564
0.00000000000 0.46710011363 0.53289991617
1.00000000000 0.46800771356 0.53199225664
0.00000000000 0.46734556556 0.53265446424
0.00000000000 0.46706604958 0.53293395042
0.00000000000 0.46733596921 0.53266400099
0.00000000000 0.46820661426 0.53179341555
0.00000000000 0.46715363860 0.53284639120
0.00000000000 0.46705958247 0.53294044733
0.00000000000 0.46695378423 0.53304624557
1.00000000000 0.46757504344 0.53242498636
0.00000000000 0.46698439121 0.53301560879
0.00000000000 0.46756538749 0.53243458271
0.00000000000 0.46733123064 0.53266876936
0.00000000000 0.46773079038 0.53226923943
0.00000000000 0.46744558215 0.53255438805
0.00000000000 0.46703466773 0.53296536207
0.00000000000 0.46724036336 0.53275966644
0.00000000000 0.46735408902 0.53264588118
1.00000000000 0.46762216091 0.53237783909
0.00000000000 0.46713781357 0.53286224604
0.00000000000 0.46697515249 0.53302478790
0.00000000000 0.46732169390 0.53267830610
0.00000000000 0.46740615368 0.53259384632
0.00000000000 0.46743187308 0.53256815672
0.00000000000 0.46722534299 0.53277462721
0.00000000000 0.46766257286 0.53233742714
1.00000000000 0.46789979935 0.53210020065
0.00000000000 0.46734333038 0.53265661001
0.00000000000 0.46744132042 0.53255861998
0.00000000000 0.46785545349 0.53214454651
0.00000000000 0.46709620953 0.53290379047
0.00000000000 0.46762719750 0.53237283230
0.00000000000 0.46751126647 0.53248870373
0.00000000000 0.46727636456 0.53272366524
0.00000000000 0.46714606881 0.53285396099
0.00000000000 0.46729347110 0.53270649910
1.00000000000 0.46706682444 0.53293317556
0.00000000000 0.46717041731 0.53282958269
0.00000000000 0.46719273925 0.53280723095
0.00000000000 0.46721759439 0.53278243542
0.00000000000 0.46712318063 0.53287684917
0.00000000000 0.46722784638 0.53277212381
0.00000000000 0.46725234389 0.53274768591
0.00000000000 0.46718025208 0.53281968832
1.00000000000 0.46753159165 0.53246843815
0.00000000000 0.46733903885 0.53266096115
0.00000000000 0.46735963225 0.53264033794
0.00000000000 0.46791151166 0.53208845854
0.00000000000 0.46727275848 0.53272724152
0.00000000000 0.46732887626 0.53267109394
1.00000000000 0.46811977029 0.53188019991
1.00000000000 0.46734818816 0.53265184164
0.00000000000 0.46721795201 0.53278207779
0.00000000000 0.46728157997 0.53271842003
0.00000000000 0.46711310744 0.53288692236
0.00000000000 0.46716758609 0.53283238411
0.00000000000 0.46724036336 0.53275960684
0.00000000000 0.46726897359 0.53273099661
0.00000000000 0.46733129025 0.53266865015
0.00000000000 0.46757531166 0.53242462873
0.00000000000 0.46743476391 0.53256523609
1.00000000000 0.46749114990 0.53250885010
0.00000000000 0.46709394455 0.53290599585
0.00000000000 0.46709367633 0.53290629387
0.00000000000 0.46721598506 0.53278398514
0.00000000000 0.46737420559 0.53262579441
0.00000000000 0.46741783619 0.53258216381
0.00000000000 0.46717354655 0.53282642365
0.00000000000 0.46714931726 0.53285062313
0.00000000000 0.46778166294 0.53221833706
0.00000000000 0.46775808930 0.53224194050
0.00000000000 0.46765059233 0.53234940767
0.00000000000 0.46713408828 0.53286588192
0.00000000000 0.46699169278 0.53300833702
0.00000000000 0.46725818515 0.53274178505
1.00000000000 0.46723586321 0.53276413679
0.00000000000 0.46712088585 0.53287911415
0.00000000000 0.46742215753 0.53257781267
0.00000000000 0.46722942591 0.53277057409
0.00000000000 0.46720665693 0.53279340267
0.00000000000 0.46741357446 0.53258645535
0.00000000000 0.46723541617 0.53276455402
0.00000000000 0.46720963717 0.53279036283
1.00000000000 0.46723952889 0.53276050091
0.00000000000 0.46767756343 0.53232240677
0.00000000000 0.46755596995 0.53244405985
0.00000000000 0.46782416105 0.53217583895
0.00000000000 0.46720138192 0.53279864788
0.00000000000 0.46722161770 0.53277838230
1.00000000000 0.46734541655 0.53265458345
0.00000000000 0.46718543768 0.53281456232
0.00000000000 0.46716704965 0.53283292055
0.00000000000 0.46804368496 0.53195631504
1.00000000000 0.46744850278 0.53255146742
0.00000000000 0.46699702740 0.53300291300
1.00000000000 0.46746304631 0.53253698349
0.00000000000 0.46776401997 0.53223603964
0.00000000000 0.46725606918 0.53274393082
0.00000000000 0.46727275848 0.53272718191
0.00000000000 0.46724346280 0.53275650740
0.00000000000 0.46755111217 0.53244888783
0.00000000000 0.46764376760 0.53235620260
0.00000000000 0.46708256006 0.53291743994
0.00000000000 0.46718317270 0.53281682730
0.00000000000 0.46729603410 0.53270393610
0.00000000000 0.46719995141 0.53280007839
0.00000000000 0.46804341674 0.53195655346
0.00000000000 0.46712434292 0.53287571669
0.00000000000 0.46725663543 0.53274339437
0.00000000000 0.46713200212 0.53286796808
1.00000000000 0.46802607179 0.53197389841
0.00000000000 0.46700260043 0.53299736977
0.00000000000 0.46710804105 0.53289192915
0.00000000000 0.46709874272 0.53290122747
0.00000000000 0.46816101670 0.53183901310
0.00000000000 0.46709275246 0.53290724754
0.00000000000 0.46722450852 0.53277546167
0.00000000000 0.46751835942 0.53248161077
0.00000000000 0.46735212207 0.53264790773
0.00000000000 0.46739920974 0.53260082006
1.00000000000 0.46715974808 0.53284031153
0.00000000000 0.46775794029 0.53224200010
0.00000000000 0.46711146832 0.53288853168
0.00000000000 0.46718677878 0.53281319141
0.00000000000 0.46749511361 0.53250485659
0.00000000000 0.46736764908 0.53263235092
0.00000000000 0.46738564968 0.53261435032
0.00000000000 0.46699339151 0.53300660849
0.00000000000 0.46707725525 0.53292274475
0.00000000000 0.46719181538 0.53280818462
0.00000000000 0.46709170938 0.53290826082
0.00000000000 0.46729180217 0.53270816803
1.00000000000 0.46800699830 0.53199297190
1.00000000000 0.46758064628 0.53241932392
0.00000000000 0.46730273962 0.53269731998
1.00000000000 0.46738967299 0.53261029720
0.00000000000 0.46788555384 0.53211444616
0.00000000000 0.46719589829 0.53280413151
0.00000000000 0.46711438894 0.53288561106
0.00000000000 0.46709597111 0.53290402889
0.00000000000 0.46750658751 0.53249341249
0.00000000000 0.46723175049 0.53276824951
0.00000000000 0.46745559573 0.53254437447
0.00000000000 0.46765914559 0.53234082460
0.00000000000 0.46707677841 0.53292322159
0.00000000000 0.46728840470 0.53271162510
0.00000000000 0.46731871367 0.53268128633
0.00000000000 0.46736484766 0.53263515234
0.00000000000 0.46715328097 0.53284668922
0.00000000000 0.46724483371 0.53275513649
1.00000000000 0.46762818098 0.53237181902
0.00000000000 0.46738880873 0.53261119127
0.00000000000 0.46719887853 0.53280115128
0.00000000000 0.46714586020 0.53285413980
1.00000000000 0.46759220958 0.53240776062
0.00000000000 0.46743166447 0.53256833553
0.00000000000 0.46726295352 0.53273701668
1.00000000000 0.46732378006 0.53267616034
0.00000000000 0.46741244197 0.53258752823
0.00000000000 0.46732154489 0.53267842531
0.00000000000 0.46727427840 0.53272569180
1.00000000000 0.46698659658 0.53301340342
0.00000000000 0.46705397964 0.53294599056
0.00000000000 0.46724256873 0.53275746107
0.00000000000 0.46711608768 0.53288388252
0.00000000000 0.46737360954 0.53262639046
0.00000000000 0.46744114161 0.53255885839
1.00000000000 0.46811619401 0.53188377619
0.00000000000 0.46727913618 0.53272092342
0.00000000000 0.46708905697 0.53291088343
0.00000000000 0.46714302897 0.53285700083
0.00000000000 0.46704816818 0.53295177221
0.00000000000 0.46719536185 0.53280466795
0.00000000000 0.46696600318 0.53303396702
0.00000000000 0.46728712320 0.53271287680
0.00000000000 0.46724340320 0.53275662661
0.00000000000 0.46733635664 0.53266364336
0.00000000000 0.46773126721 0.53226870298
0.00000000000 0.46738645434 0.53261357546
0.00000000000 0.46722432971 0.53277570009
0.00000000000 0.46695071459 0.53304928541
1.00000000000 0.46747010946 0.53252989054
0.00000000000 0.46738541126 0.53261464834
0.00000000000 0.46713909507 0.53286093473
0.00000000000 0.46702170372 0.53297829628
0.00000000000 0.46720352769 0.53279650211
0.00000000000 0.46728983521 0.53271013498
0.00000000000 0.46733486652 0.53266513348
0.00000000000 0.46752285957 0.53247714043
0.00000000000 0.46714034677 0.53285962343
0.00000000000 0.46739366651 0.53260630369
0.00000000000 0.46722650528 0.53277349472
0.00000000000 0.46737322211 0.53262680769
0.00000000000 0.46754908562 0.53245091438
0.00000000000 0.46707010269 0.53292989731
0.00000000000 0.46718898416 0.53281104565
0.00000000000 0.46741050482 0.53258955479
1.00000000000 0.46715819836 0.53284180164
0.00000000000 0.46736043692 0.53263956308
0.00000000000 0.46760144830 0.53239858150
0.00000000000 0.46724531054 0.53275465965
0.00000000000 0.46764466166 0.53235536814
1.00000000000 0.46782046556 0.53217953444
1.00000000000 0.46782642603 0.53217357397
0.00000000000 0.46719613671 0.53280389309
0.00000000000 0.46715334058 0.53284662962
0.00000000000 0.46756085753 0.53243917227
0.00000000000 0.46717482805 0.53282517195
0.00000000000 0.46776914597 0.53223079443
0.00000000000 0.46715334058 0.53284662962
0.00000000000 0.46705114841 0.53294891119
0.00000000000 0.46794334054 0.53205662966
0.00000000000 0.46713614464 0.53286385536
0.00000000000 0.46769720316 0.53230279684
0.00000000000 0.46728962660 0.53271037340
0.00000000000 0.46717157960 0.53282839060
1.00000000000 0.46750116348 0.53249883652
0.00000000000 0.46710300446 0.53289699554
0.00000000000 0.46776774526 0.53223228455
0.00000000000 0.46700078249 0.53299921751
1.00000000000 0.46711790562 0.53288209438
0.00000000000 0.46725440025 0.53274559975
1.00000000000 0.46804538369 0.53195464611
0.00000000000 0.46718341112 0.53281658888
0.00000000000 0.46767124534 0.53232878447
0.00000000000 0.46722662449 0.53277343512
0.00000000000 0.46794322133 0.53205674887
0.00000000000 0.46706753969 0.53293251991
0.00000000000 0.46752011776 0.53247988224
0.00000000000 0.46742293239 0.53257709742
0.00000000000 0.46746918559 0.53253078461
0.00000000000 0.46772369742 0.53227627277
0.00000000000 0.46726161242 0.53273844719
0.00000000000 0.46707668900 0.53292334080
0.00000000000 0.46798753738 0.53201246262
0.00000000000 0.46732205153 0.53267794847
0.00000000000 0.46745732427 0.53254270554
0.00000000000 0.46728324890 0.53271675110
0.00000000000 0.46728771925 0.53271222115
0.00000000000 0.46729266644 0.53270739317
0.00000000000 0.46747675538 0.53252321482
0.00000000000 0.46716949344 0.53283053637
0.00000000000 0.46701407433 0.53298592567
1.00000000000 0.46742600203 0.53257399797
0.00000000000 0.46705827117 0.53294175863
0.00000000000 0.46704438329 0.53295564651
0.00000000000 0.46728333831 0.53271669149
0.00000000000 0.46771943569 0.53228050470
1.00000000000 0.46783423424 0.53216576576
0.00000000000 0.46712788939 0.53287208080
0.00000000000 0.46742048860 0.53257948160
0.00000000000 0.46798697114 0.53201299906
0.00000000000 0.46724691987 0.53275310993
0.00000000000 0.46748304367 0.53251689672
0.00000000000 0.46754792333 0.53245210648
1.00000000000 0.46766650677 0.53233349323
1.00000000000 0.46700382233 0.53299617767
0.00000000000 0.46709752083 0.53290247917
0.00000000000 0.46739310026 0.53260689974
0.00000000000 0.46698167920 0.53301829100
0.00000000000 0.46701836586 0.53298163414
0.00000000000 0.46744245291 0.53255754709
0.00000000000 0.46728378534 0.53271621466
0.00000000000 0.46742290258 0.53257709742
1.00000000000 0.46800997853 0.53198999166
0.00000000000 0.46699962020 0.53300040960
0.00000000000 0.46707016230 0.53292983770
0.00000000000 0.46720972657 0.53279024363
0.00000000000 0.46727663279 0.53272336721
0.00000000000 0.46738845110 0.53261160851
0.00000000000 0.46730065346 0.53269940615
1.00000000000 0.46773815155 0.53226184845
1.00000000000 0.46714624763 0.53285378218
0.00000000000 0.46695673466 0.53304326534
0.00000000000 0.46718525887 0.53281474113
0.00000000000 0.46705096960 0.53294903040
0.00000000000 0.46716192365 0.53283804655
0.00000000000 0.46734279394 0.53265726566
0.00000000000 0.46717092395 0.53282910585
0.00000000000 0.46744728088 0.53255277872
0.00000000000 0.46724301577 0.53275698423
0.00000000000 0.46759274602 0.53240722418
0.00000000000 0.46717140079 0.53282862902
0.00000000000 0.46723487973 0.53276509047
0.00000000000 0.46733406186 0.53266596794
0.00000000000 0.46778321266 0.53221678734
0.00000000000 0.46694606543 0.53305393457
0.00000000000 0.46724638343 0.53275364637
0.00000000000 0.46730294824 0.53269702196
0.00000000000 0.46776840091 0.53223156929
0.00000000000 0.46748784184 0.53251212835
1.00000000000 0.46786287427 0.53213715553
0.00000000000 0.46750029922 0.53249973059
0.00000000000 0.46725177765 0.53274822235
0.00000000000 0.46726271510 0.53273725510
0.00000000000 0.46713536978 0.53286463022
0.00000000000 0.46699851751 0.53300148249
0.00000000000 0.46725761890 0.53274238110
0.00000000000 0.46698904037 0.53301090002
0.00000000000 0.46713051200 0.53286951780
1.00000000000 0.46797189116 0.53202807903
0.00000000000 0.46789446473 0.53210556507
1.00000000000 0.46858367324 0.53141635656
0.00000000000 0.46713584661 0.53286409378
1.00000000000 0.46730834246 0.53269165754
0.00000000000 0.46696656942 0.53303343058
0.00000000000 0.46724542975 0.53275454044
0.00000000000 0.46742379665 0.53257620335
0.00000000000 0.46789956093 0.53210043907
0.00000000000 0.46763384342 0.53236609697
0.00000000000 0.46736645699 0.53263354301
0.00000000000 0.46727743745 0.53272259235
1.00000000000 0.46759322286 0.53240674734
0.00000000000 0.46713674068 0.53286325932
0.00000000000 0.46754693985 0.53245306015
0.00000000000 0.46759641171 0.53240358829
0.00000000000 0.46755680442 0.53244322538
0.00000000000 0.46742355824 0.53257650137
0.00000000000 0.46740239859 0.53259760141
1.00000000000 0.46725487709 0.53274512291
0.00000000000 0.46741199493 0.53258800507
0.00000000000 0.46794393659 0.53205609322
0.00000000000 0.46721509099 0.53278493881
0.00000000000 0.46737721562 0.53262275457
0.00000000000 0.46737256646 0.53262746334
0.00000000000 0.46749615669 0.53250384331
0.00000000000 0.46744140983 0.53255861998
0.00000000000 0.46750536561 0.53249466419
0.00000000000 0.46747466922 0.53252536058
0.00000000000 0.46723648906 0.53276354074
0.00000000000 0.46731606126 0.53268390894
0.00000000000 0.46761420369 0.53238576651
0.00000000000 0.46773639321 0.53226357698
0.00000000000 0.46757003665 0.53242993355
1.00000000000 0.46745714545 0.53254288435
0.00000000000 0.46791911125 0.53208082914
0.00000000000 0.46717548370 0.53282451630
0.00000000000 0.46711552143 0.53288447857
0.00000000000 0.46707171202 0.53292828798
0.00000000000 0.46735796332 0.53264200687
0.00000000000 0.46713835001 0.53286164999
0.00000000000 0.46726322174 0.53273677826
0.00000000000 0.46711605787 0.53288394213
0.00000000000 0.46707299352 0.53292703629
1.00000000000 0.46709024906 0.53290975094
0.00000000000 0.46702584624 0.53297412395
0.00000000000 0.46704050899 0.53295946121
0.00000000000 0.46741989255 0.53258007765
0.00000000000 0.46765351295 0.53234654665
0.00000000000 0.46744081378 0.53255915642
1.00000000000 0.46707642078 0.53292357922
0.00000000000 0.46710002422 0.53289997578
0.00000000000 0.46750164032 0.53249830008
0.00000000000 0.46748468280 0.53251528740
0.00000000000 0.46711987257 0.53288012743
0.00000000000 0.46722176671 0.53277820349
0.00000000000 0.46727809310 0.53272193670
0.00000000000 0.46773922443 0.53226071596
0.00000000000 0.46746501327 0.53253495693
0.00000000000 0.46739974618 0.53260028362
0.00000000000 0.46747344732 0.53252649307
0.00000000000 0.46738767624 0.53261232376
0.00000000000 0.46758383512 0.53241622448
0.00000000000 0.46723127365 0.53276872635
0.00000000000 0.46702575684 0.53297424316
0.00000000000 0.46776142716 0.53223860264
0.00000000000 0.46748292446 0.53251707554
0.00000000000 0.46727812290 0.53272193670
0.00000000000 0.46751579642 0.53248417377
0.00000000000 0.46740502119 0.53259497881
0.00000000000 0.46743226051 0.53256767988
0.00000000000 0.46711066365 0.53288930655
0.00000000000 0.46695840359 0.53304159641
1.00000000000 0.46760851145 0.53239148855
0.00000000000 0.46730124950 0.53269875050
1.00000000000 0.46702149510 0.53297853470
0.00000000000 0.46713951230 0.53286051750
0.00000000000 0.46723669767 0.53276330233
0.00000000000 0.46730110049 0.53269892931
0.00000000000 0.46726742387 0.53273254633
0.00000000000 0.46732017398 0.53267985582
0.00000000000 0.46816721559 0.53183275461
1.00000000000 0.46730333567 0.53269666433
0.00000000000 0.46741917729 0.53258079290
0.00000000000 0.46696987748 0.53303015232
0.00000000000 0.46761384606 0.53238618374
0.00000000000 0.46767643094 0.53232353926
0.00000000000 0.46730756760 0.53269243240
0.00000000000 0.46717464924 0.53282535076
0.00000000000 0.46744114161 0.53255885839
1.00000000000 0.46768277884 0.53231722116
0.00000000000 0.46723824739 0.53276175261
0.00000000000 0.46719315648 0.53280687332
0.00000000000 0.46772348881 0.53227645159
0.00000000000 0.46719676256 0.53280317783
0.00000000000 0.46736055613 0.53263944387
0.00000000000 0.46726271510 0.53273725510
0.00000000000 0.46758031845 0.53241968155
0.00000000000 0.46731188893 0.53268808126
0.00000000000 0.46715277433 0.53284716606
0.00000000000 0.46747413278 0.53252589703
0.00000000000 0.46748772264 0.53251230717
0.00000000000 0.46722263098 0.53277742863
0.00000000000 0.46720191836 0.53279811144
0.00000000000 0.46697381139 0.53302621841
0.00000000000 0.46720346808 0.53279656172
0.00000000000 0.46694651246 0.53305351734
0.00000000000 0.46749940515 0.53250056505
0.00000000000 0.46719843149 0.53280156851
0.00000000000 0.46727472544 0.53272527456
0.00000000000 0.46788057685 0.53211945295
0.00000000000 0.46798306704 0.53201693296
1.00000000000 0.46741640568 0.53258359432
0.00000000000 0.46733155847 0.53266841173
0.00000000000 0.46727144718 0.53272855282
0.00000000000 0.46725395322 0.53274601698
1.00000000000 0.46752420068 0.53247582912
0.00000000000 0.46764472127 0.53235524893
0.00000000000 0.46738821268 0.53261178732
0.00000000000 0.46714314818 0.53285688162
0.00000000000 0.46699583530 0.53300416470
1.00000000000 0.46750169992 0.53249824047
0.00000000000 0.46717727184 0.53282272816
0.00000000000 0.46798279881 0.53201723099
0.00000000000 0.46695679426 0.53304314613
0.00000000000 0.46720495820 0.53279507160
0.00000000000 0.46741226315 0.53258776665
0.00000000000 0.46735617518 0.53264379501
0.00000000000 0.46697163582 0.53302836418
0.00000000000 0.46716508269 0.53283494711
0.00000000000 0.46735039353 0.53264957666
0.00000000000 0.46719729900 0.53280270100
0.00000000000 0.46732372046 0.53267627954
0.00000000000 0.46695545316 0.53304457664
0.00000000000 0.46725085378 0.53274917603
0.00000000000 0.46770283580 0.53229719400
0.00000000000 0.46705389023 0.53294610977
0.00000000000 0.46697726846 0.53302276134
0.00000000000 0.46735969186 0.53264027834
0.00000000000 0.46778604388 0.53221398592
0.00000000000 0.46738797426 0.53261208534
0.00000000000 0.46783113480 0.53216886520
0.00000000000 0.46705800295 0.53294199705
0.00000000000 0.46706327796 0.53293669224
0.00000000000 0.46715351939 0.53284651041
0.00000000000 0.46757376194 0.53242623806
0.00000000000 0.46699431539 0.53300571442
0.00000000000 0.46694147587 0.53305852413
0.00000000000 0.46706849337 0.53293156624
0.00000000000 0.46764355898 0.53235644102
0.00000000000 0.46711444855 0.53288555145
0.00000000000 0.46756008267 0.53243994713
0.00000000000 0.46713840961 0.53286159039
0.00000000000 0.46745702624 0.53254300356
0.00000000000 0.46728819609 0.53271174431
1.00000000000 0.46718192101 0.53281807899
0.00000000000 0.46710416675 0.53289586306
0.00000000000 0.46732681990 0.53267312050
0.00000000000 0.46746182442 0.53253823519
1.00000000000 0.46762585640 0.53237414360
0.00000000000 0.46772378683 0.53227621317
0.00000000000 0.46745580435 0.53254413605
1.00000000000 0.46737790108 0.53262215853
0.00000000000 0.46733394265 0.53266602755
0.00000000000 0.46717444062 0.53282552958
1.00000000000 0.46707504988 0.53292500973
0.00000000000 0.46719852090 0.53280150890
0.00000000000 0.46713748574 0.53286254406
0.00000000000 0.46729275584 0.53270721436
0.00000000000 0.46759977937 0.53240025043
0.00000000000 0.46727514267 0.53272485733
0.00000000000 0.46711769700 0.53288233280
1.00000000000 0.46751707792 0.53248292208
0.00000000000 0.46739348769 0.53260654211
1.00000000000 0.46740230918 0.53259766102
0.00000000000 0.46739318967 0.53260684013
0.00000000000 0.46701383591 0.53298622370
0.00000000000 0.46715793014 0.53284204006
0.00000000000 0.46699368954 0.53300631046
0.00000000000 0.46716347337 0.53283655643
0.00000000000 0.46724265814 0.53275740147
0.00000000000 0.46722945571 0.53277051449
1.00000000000 0.46740877628 0.53259122372
0.00000000000 0.46750044823 0.53249955177
0.00000000000 0.46705931425 0.53294068575
0.00000000000 0.46743485332 0.53256517649
0.00000000000 0.46718701720 0.53281295300
0.00000000000 0.46740725636 0.53259277344
0.00000000000 0.46703419089 0.53296583891
0.00000000000 0.46753808856 0.53246188164
0.00000000000 0.46752759814 0.53247243166
0.00000000000 0.46821722388 0.53178280592
0.00000000000 0.46768599749 0.53231400251
0.00000000000 0.46718153358 0.53281843662
0.00000000000 0.46753764153 0.53246235847
0.00000000000 0.46718540788 0.53281462193
0.00000000000 0.46717041731 0.53282958269
0.00000000000 0.46733886003 0.53266108036
1.00000000000 0.46744593978 0.53255409002
1.00000000000 0.46749562025 0.53250432014
0.00000000000 0.46744120121 0.53255879879
0.00000000000 0.46720466018 0.53279536963
0.00000000000 0.46730580926 0.53269416094
1.00000000000 0.46747878194 0.53252124786
0.00000000000 0.46727269888 0.53272724152
0.00000000000 0.46720632911 0.53279364109
1.00000000000 0.46737477183 0.53262525797
0.00000000000 0.46697399020 0.53302598000
0.00000000000 0.46723920107 0.53276073933
0.00000000000 0.46718978882 0.53281015158
0.00000000000 0.46766352654 0.53233647346
0.00000000000 0.46736425161 0.53263574839
1.00000000000 0.46758240461 0.53241759539
0.00000000000 0.46760761738 0.53239238262
0.00000000000 0.46717438102 0.53282564878
0.00000000000 0.46723148227 0.53276848793
0.00000000000 0.46767836809 0.53232157230
0.00000000000 0.46725702286 0.53274297714
0.00000000000 0.46704354882 0.53295642138
0.00000000000 0.46744874120 0.53255128860
0.00000000000 0.46739810705 0.53260189295
0.00000000000 0.46727329493 0.53272670507
0.00000000000 0.46728530526 0.53271466494
0.00000000000 0.46724259853 0.53275746107
0.00000000000 0.46723696589 0.53276306391
0.00000000000 0.46748542786 0.53251463175
0.00000000000 0.46738681197 0.53261315823
0.00000000000 0.46702569723 0.53297436237
0.00000000000 0.46742719412 0.53257280588
0.00000000000 0.46735957265 0.53264045715
0.00000000000 0.46750569344 0.53249424696
0.00000000000 0.46741625667 0.53258377314
0.00000000000 0.46737471223 0.53262525797
0.00000000000 0.46726262569 0.53273737431
1.00000000000 0.46745324135 0.53254675865
0.00000000000 0.46737024188 0.53262972832
0.00000000000 0.46714979410 0.53285014629
0.00000000000 0.46723589301 0.53276407719
0.00000000000 0.46763956547 0.53236043453
1.00000000000 0.46757882833 0.53242117167
0.00000000000 0.46712014079 0.53287988901
0.00000000000 0.46756356955 0.53243649006
0.00000000000 0.46717053652 0.53282946348
1.00000000000 0.46712380648 0.53287619352
0.00000000000 0.46727254987 0.53272747993
0.00000000000 0.46740469337 0.53259527683
0.00000000000 0.46798184514 0.53201818466
0.00000000000 0.46724313498 0.53275692463
0.00000000000 0.46701142192 0.53298854828
0.00000000000 0.46699684858 0.53300315142
0.00000000000 0.46715167165 0.53284835815
0.00000000000 0.46771323681 0.53228676319
0.00000000000 0.46700930595 0.53299069405
0.00000000000 0.46708700061 0.53291296959
1.00000000000 0.46707850695 0.53292155266
0.00000000000 0.46746891737 0.53253114223
0.00000000000 0.46711808443 0.53288191557
0.00000000000 0.46717682481 0.53282314539
0.00000000000 0.46728670597 0.53271335363
0.00000000000 0.46753177047 0.53246825933
1.00000000000 0.46812543273 0.53187453747
0.00000000000 0.46708720922 0.53291279078
0.00000000000 0.46720033884 0.53279966116
1.00000000000 0.46709218621 0.53290778399
0.00000000000 0.46731340885 0.53268659115
0.00000000000 0.46705493331 0.53294503689
0.00000000000 0.46695035696 0.53304958344
0.00000000000 0.46799761057 0.53200238943
0.00000000000 0.46698686481 0.53301310539
0.00000000000 0.46712949872 0.53287053108
0.00000000000 0.46728169918 0.53271836042
0.00000000000 0.46704193950 0.53295809031
0.00000000000 0.46705886722 0.53294116259
0.00000000000 0.46719387174 0.53280609846
0.00000000000 0.46720233560 0.53279763460
0.00000000000 0.46697136760 0.53302866220
0.00000000000 0.46720334888 0.53279668093
0.00000000000 0.46727636456 0.53272360563
1.00000000000 0.46738201380 0.53261798620
0.00000000000 0.46749669313 0.53250330687
0.00000000000 0.46725013852 0.53274989128
0.00000000000 0.46709853411 0.53290146589
1.00000000000 0.46747601032 0.53252393007
0.00000000000 0.46716275811 0.53283721209
0.00000000000 0.46737417579 0.53262579441
0.00000000000 0.46712887287 0.53287112713
0.00000000000 0.46726924181 0.53273069859
0.00000000000 0.46719318628 0.53280681372
0.00000000000 0.46719115973 0.53280884027
0.00000000000 0.46705931425 0.53294068575
0.00000000000 0.46718189120 0.53281813860
0.00000000000 0.46709463000 0.53290534019
0.00000000000 0.46755248308 0.53244751692
0.00000000000 0.46716672182 0.53283321857
0.00000000000 0.46734860539 0.53265142441
0.00000000000 0.46712392569 0.53287607431
0.00000000000 0.46744552255 0.53255444765
0.00000000000 0.46747601032 0.53252398968
0.00000000000 0.46727985144 0.53272014856
0.00000000000 0.46773502231 0.53226500750
0.00000000000 0.46703273058 0.53296726942
0.00000000000 0.46752059460 0.53247940540
0.00000000000 0.46734553576 0.53265446424
0.00000000000 0.46715030074 0.53284966946
0.00000000000 0.46736091375 0.53263908625
0.00000000000 0.46700170636 0.53299826384
0.00000000000 0.46696850657 0.53303146362
0.00000000000 0.46723759174 0.53276240826
0.00000000000 0.46726286411 0.53273713589
0.00000000000 0.46787029505 0.53212964535
0.00000000000 0.46738350391 0.53261649609
0.00000000000 0.46797680855 0.53202319145
0.00000000000 0.46715942025 0.53284054995
0.00000000000 0.46767243743 0.53232759237
0.00000000000 0.46702402830 0.53297597170
0.00000000000 0.46708709002 0.53291290998
0.00000000000 0.46792814136 0.53207182884
1.00000000000 0.46749064326 0.53250932693
0.00000000000 0.46704310179 0.53295689821
0.00000000000 0.46773308516 0.53226697445
0.00000000000 0.46735599637 0.53264397383
0.00000000000 0.46784889698 0.53215104342
0.00000000000 0.46717604995 0.53282392025
0.00000000000 0.46763262153 0.53236734867
1.00000000000 0.46736255288 0.53263747692
1.00000000000 0.46780988574 0.53219008446
1.00000000000 0.46743604541 0.53256392479
0.00000000000 0.46711891890 0.53288108110
0.00000000000 0.46742847562 0.53257155418
0.00000000000 0.46749913692 0.53250080347
0.00000000000 0.46713650227 0.53286349773
0.00000000000 0.46699711680 0.53300291300
0.00000000000 0.46758592129 0.53241407871
1.00000000000 0.46700441837 0.53299558163
0.00000000000 0.46745803952 0.53254199028
0.00000000000 0.46720501781 0.53279501200
0.00000000000 0.46699222922 0.53300774097
0.00000000000 0.46720767021 0.53279238939
0.00000000000 0.46713191271 0.53286802769
0.00000000000 0.46791616082 0.53208380938
0.00000000000 0.46735787392 0.53264218569
0.00000000000 0.46710342169 0.53289651871
1.00000000000 0.46735569835 0.53264427185
0.00000000000 0.46706780791 0.53293216228
1.00000000000 0.46729037166 0.53270965815
1.00000000000 0.46740466356 0.53259533644
0.00000000000 0.46762421727 0.53237581253
0.00000000000 0.46714147925 0.53285855055
0.00000000000 0.46700802445 0.53299194574
1.00000000000 0.46703651547 0.53296351433
0.00000000000 0.46727553010 0.53272444010
0.00000000000 0.46763923764 0.53236079216
0.00000000000 0.46723949909 0.53276050091
0.00000000000 0.46737539768 0.53262460232
0.00000000000 0.46713751554 0.53286248446
0.00000000000 0.46752768755 0.53247231245
0.00000000000 0.46724048257 0.53275954723
0.00000000000 0.46733918786 0.53266084194
0.00000000000 0.46766296029 0.53233700991
0.00000000000 0.46722200513 0.53277796507
0.00000000000 0.46771904826 0.53228098154
0.00000000000 0.46735066175 0.53264933825
0.00000000000 0.46733865142 0.53266131878
0.00000000000 0.46705695987 0.53294301033
0.00000000000 0.46735590696 0.53264409304
0.00000000000 0.46716916561 0.53283083439
1.00000000000 0.46725922823 0.53274077177
0.00000000000 0.46746134758 0.53253859282
1.00000000000 0.46724769473 0.53275227547
0.00000000000 0.46731227636 0.53268772364
0.00000000000 0.46737226844 0.53262770176
0.00000000000 0.46746340394 0.53253656626
0.00000000000 0.46705421805 0.53294575214
0.00000000000 0.46698355675 0.53301638365
0.00000000000 0.46735391021 0.53264605999
0.00000000000 0.46719798446 0.53280198574
0.00000000000 0.46773862839 0.53226143122
0.00000000000 0.46748331189 0.53251665831
0.00000000000 0.46766066551 0.53233933449
0.00000000000 0.46699613333 0.53300386667
0.00000000000 0.46739628911 0.53260374069
1.00000000000 0.46786445379 0.53213554621
0.00000000000 0.46736910939 0.53263086081
0.00000000000 0.46717596054 0.53282403946
0.00000000000 0.46705257893 0.53294742107
0.00000000000 0.46723333001 0.53276669979
0.00000000000 0.46725782752 0.53274220228
0.00000000000 0.46736210585 0.53263789415
0.00000000000 0.46717464924 0.53282535076
0.00000000000 0.46750298142 0.53249704838
0.00000000000 0.46710354090 0.53289645910
0.00000000000 0.46724399924 0.53275597095
1.00000000000 0.46774798632 0.53225201368
0.00000000000 0.46771094203 0.53228908777
0.00000000000 0.46696141362 0.53303855658
0.00000000000 0.46723648906 0.53276354074
0.00000000000 0.46705338359 0.53294664621
0.00000000000 0.46749567986 0.53250432014
1.00000000000 0.46784904599 0.53215098381
1.00000000000 0.46726426482 0.53273570538
1.00000000000 0.46737608314 0.53262388706
0.00000000000 0.46732187271 0.53267812729
0.00000000000 0.46692657471 0.53307336569
0.00000000000 0.46709218621 0.53290778399
0.00000000000 0.46704816818 0.53295183182
0.00000000000 0.46741378307 0.53258621693
0.00000000000 0.46722832322 0.53277170658
0.00000000000 0.46755707264 0.53244292736
0.00000000000 0.46696329117 0.53303670883
0.00000000000 0.46721231937 0.53278768063
0.00000000000 0.46752867103 0.53247129917
0.00000000000 0.46748277545 0.53251719475
0.00000000000 0.46715027094 0.53284966946
0.00000000000 0.46715667844 0.53284335136
0.00000000000 0.46728616953 0.53271383047
0.00000000000 0.46752294898 0.53247708082
1.00000000000 0.46813571453 0.53186428547
1.00000000000 0.46722182631 0.53277814388
0.00000000000 0.46709090471 0.53290915489
1.00000000000 0.46725162864 0.53274840117
0.00000000000 0.46701273322 0.53298729658
0.00000000000 0.46742355824 0.53257644176
0.00000000000 0.46714261174 0.53285735846
1.00000000000 0.46716523170 0.53283482790
1.00000000000 0.46700334549 0.53299665451
0.00000000000 0.46730881929 0.53269112110
0.00000000000 0.46731340885 0.53268659115
0.00000000000 0.46764689684 0.53235310316
0.00000000000 0.46762418747 0.53237581253
0.00000000000 0.46708431840 0.53291565180
0.00000000000 0.46722146869 0.53277856112
0.00000000000 0.46704998612 0.53294998407
1.00000000000 0.46788713336 0.53211283684
0.00000000000 0.46715927124 0.53284072876
0.00000000000 0.46698877215 0.53301125765
0.00000000000 0.46743577719 0.53256416321
1.00000000000 0.46765211225 0.53234785795
1.00000000000 0.46715506911 0.53284490108
0.00000000000 0.46704086661 0.53295910358
0.00000000000 0.46723917127 0.53276079893
0.00000000000 0.46720069647 0.53279936314
1.00000000000 0.46744078398 0.53255915642
1.00000000000 0.46770739555 0.53229260445
0.00000000000 0.46713992953 0.53286004066
0.00000000000 0.46725571156 0.53274428844
0.00000000000 0.46760785580 0.53239214420
0.00000000000 0.46714884043 0.53285115957
0.00000000000 0.46731397510 0.53268599510
0.00000000000 0.46745836735 0.53254157305
0.00000000000 0.46703249216 0.53296750784
0.00000000000 0.46744045615 0.53255957365
1.00000000000 0.46736705303 0.53263294697
1.00000000000 0.46763619781 0.53236377239
0.00000000000 0.46716988087 0.53283011913
0.00000000000 0.46695071459 0.53304928541
0.00000000000 0.46709191799 0.53290808201
0.00000000000 0.46789005399 0.53210997581
0.00000000000 0.46710219979 0.53289777040
1.00000000000 0.46708431840 0.53291565180
0.00000000000 0.46784850955 0.53215152025
0.00000000000 0.46709370613 0.53290629387
0.00000000000 0.46730503440 0.53269493580
0.00000000000 0.46732988954 0.53267008066
0.00000000000 0.46709936857 0.53290063143
0.00000000000 0.46705305576 0.53294694424
0.00000000000 0.46740311384 0.53259688616
1.00000000000 0.46748715639 0.53251284361
0.00000000000 0.46733555198 0.53266447783
0.00000000000 0.46702203155 0.53297799826
0.00000000000 0.46762669086 0.53237330914
0.00000000000 0.46728888154 0.53271114826
1.00000000000 0.46776577830 0.53223425150
0.00000000000 0.46704512835 0.53295487165
1.00000000000 0.46718534827 0.53281468153
1.00000000000 0.46731114388 0.53268885612
0.00000000000 0.46759927273 0.53240072727
0.00000000000 0.46740636230 0.53259360790
1.00000000000 0.46775910258 0.53224092722
0.00000000000 0.46760985255 0.53239011765
0.00000000000 0.46702483296 0.53297513723
1.00000000000 0.46727979183 0.53272020817
0.00000000000 0.46779143810 0.53220850229
0.00000000000 0.46721550822 0.53278446198
0.00000000000 0.46701559424 0.53298437595
0.00000000000 0.46743702888 0.53256297112
0.00000000000 0.46764329076 0.53235667944
0.00000000000 0.46732100844 0.53267902136
0.00000000000 0.46721145511 0.53278851509
0.00000000000 0.46722012758 0.53277987242
1.00000000000 0.46718722582 0.53281271458
0.00000000000 0.46719312668 0.53280687332
0.00000000000 0.46728625894 0.53271371126
0.00000000000 0.46719953418 0.53280049562
0.00000000000 0.46709486842 0.53290516138
0.00000000000 0.46743890643 0.53256112337
0.00000000000 0.46756944060 0.53243058920
0.00000000000 0.46728548408 0.53271448612
0.00000000000 0.46707227826 0.53292775154
0.00000000000 0.46718353033 0.53281646967
1.00000000000 0.46724915504 0.53275090456
0.00000000000 0.46720632911 0.53279370070
0.00000000000 0.46727666259 0.53272336721
1.00000000000 0.46766850352 0.53233146667
0.00000000000 0.46741089225 0.53258907795
1.00000000000 0.46739992499 0.53260010481
0.00000000000 0.46736040711 0.53263956308
0.00000000000 0.46741601825 0.53258401155
0.00000000000 0.46700239182 0.53299760818
0.00000000000 0.46721604466 0.53278398514
0.00000000000 0.46718376875 0.53281617165
0.00000000000 0.46709659696 0.53290337324
0.00000000000 0.46750095487 0.53249901533
0.00000000000 0.46784144640 0.53215855360
1.00000000000 0.46743896604 0.53256106377
1.00000000000 0.46812057495 0.53187942505
0.00000000000 0.46706116199 0.53293883801
0.00000000000 0.46746999025 0.53253000975
0.00000000000 0.46769574285 0.53230428696
0.00000000000 0.46703183651 0.53296816349
1.00000000000 0.46716150641 0.53283852339
0.00000000000 0.46713611484 0.53286385536
1.00000000000 0.46760892868 0.53239107132
0.00000000000 0.46732580662 0.53267425299
0.00000000000 0.46727770567 0.53272235394
0.00000000000 0.46704375744 0.53295624256
0.00000000000 0.46722468734 0.53277528286
0.00000000000 0.46705383062 0.53294616938
0.00000000000 0.46773120761 0.53226882219
0.00000000000 0.46720984578 0.53279018402
0.00000000000 0.46716198325 0.53283798695
0.00000000000 0.46709319949 0.53290677071
0.00000000000 0.46729198098 0.53270798922
0.00000000000 0.46745589375 0.53254407644
0.00000000000 0.46726143360 0.53273856640
0.00000000000 0.46721795201 0.53278207779
0.00000000000 0.46736809611 0.53263193369
0.00000000000 0.46733525395 0.53266477585
0.00000000000 0.46717241406 0.53282761574
0.00000000000 0.46772235632 0.53227770329
0.00000000000 0.46712663770 0.53287339211
0.00000000000 0.46811833978 0.53188169003
1.00000000000 0.46760827303 0.53239172697
0.00000000000 0.46758425236 0.53241574764
0.00000000000 0.46729815006 0.53270184994
1.00000000000 0.46717503667 0.53282493353
0.00000000000 0.46729591489 0.53270411491
0.00000000000 0.46741732955 0.53258270025
0.00000000000 0.46704623103 0.53295373917
0.00000000000 0.46709990501 0.53290003538
0.00000000000 0.46791961789 0.53208041191
0.00000000000 0.46713849902 0.53286147118
0.00000000000 0.46712306142 0.53287690878
0.00000000000 0.46732085943 0.53267914057
0.00000000000 0.46720099449 0.53279900551
0.00000000000 0.46707719564 0.53292280436
0.00000000000 0.46717923880 0.53282076120
0.00000000000 0.46756011248 0.53243982792
0.00000000000 0.46711352468 0.53288650513
0.00000000000 0.46785327792 0.53214669228
0.00000000000 0.46696662903 0.53303337097
0.00000000000 0.46771648526 0.53228348494
0.00000000000 0.46712431312 0.53287571669
0.00000000000 0.46756616235 0.53243386745
0.00000000000 0.46711832285 0.53288173676
1.00000000000 0.46758729219 0.53241276741
0.00000000000 0.46730980277 0.53269016743
1.00000000000 0.46733596921 0.53266400099
0.00000000000 0.46715223789 0.53284782171
0.00000000000 0.46751186252 0.53248816729
0.00000000000 0.46714562178 0.53285437822
0.00000000000 0.46746131778 0.53253871202
0.00000000000 0.46756809950 0.53243190050
0.00000000000 0.46755436063 0.53244566917
0.00000000000 0.46712020040 0.53287976980
0.00000000000 0.46729162335 0.53270840645
0.00000000000 0.46714919806 0.53285080194
1.00000000000 0.46756514907 0.53243488073
0.00000000000 0.46735593677 0.53264403343
0.00000000000 0.46720659733 0.53279340267
0.00000000000 0.46754679084 0.53245323896
0.00000000000 0.46752285957 0.53247714043
0.00000000000 0.46734106541 0.53265893459
0.00000000000 0.46722060442 0.53277939558
0.00000000000 0.46754300594 0.53245699406
0.00000000000 0.46724310517 0.53275692463
0.00000000000 0.46707290411 0.53292709589
1.00000000000 0.46759918332 0.53240084648
1.00000000000 0.46725937724 0.53274065256
0.00000000000 0.46700415015 0.53299587965
0.00000000000 0.46708852053 0.53291141987
0.00000000000 0.46716651320 0.53283351660
0.00000000000 0.46694496274 0.53305500746
1.00000000000 0.46774348617 0.53225654364
0.00000000000 0.46723508835 0.53276491165
0.00000000000 0.46712198853 0.53287798166
0.00000000000 0.46732202172 0.53267800808
0.00000000000 0.46733412147 0.53266584873
0.00000000000 0.46706575155 0.53293424845
0.00000000000 0.46722888947 0.53277111053
0.00000000000 0.46715211868 0.53284788132
0.00000000000 0.46750020981 0.53249979019
0.00000000000 0.46729111671 0.53270888329
0.00000000000 0.46738150716 0.53261846304
0.00000000000 0.46703544259 0.53296458721
0.00000000000 0.46706983447 0.53293013573
0.00000000000 0.46708232164 0.53291767836
0.00000000000 0.46736609936 0.53263390064
0.00000000000 0.46722039580 0.53277957439
1.00000000000 0.46742954850 0.53257048130
0.00000000000 0.46709787846 0.53290212154
0.00000000000 0.46784469485 0.53215533495
0.00000000000 0.46718993783 0.53281009197
0.00000000000 0.46737796068 0.53262209892
0.00000000000 0.46708777547 0.53291219473
0.00000000000 0.46700680256 0.53299319744
1.00000000000 0.46722412109 0.53277587891
0.00000000000 0.46725115180 0.53274887800
0.00000000000 0.46731132269 0.53268867731
0.00000000000 0.46729329228 0.53270667791
0.00000000000 0.46724596620 0.53275400400
1.00000000000 0.46721395850 0.53278607130
0.00000000000 0.46733358502 0.53266638517
0.00000000000 0.46710664034 0.53289335966
0.00000000000 0.46739080548 0.53260916471
1.00000000000 0.46734702587 0.53265297413
1.00000000000 0.46716541052 0.53283458948
0.00000000000 0.46710625291 0.53289371729
0.00000000000 0.46719610691 0.53280389309
0.00000000000 0.46713936329 0.53286063671
0.00000000000 0.46706613898 0.53293383121
0.00000000000 0.46729123592 0.53270882368
0.00000000000 0.46715083718 0.53284913301
0.00000000000 0.46707111597 0.53292888403
0.00000000000 0.46744239330 0.53255760670
0.00000000000 0.46699318290 0.53300678730
0.00000000000 0.46808305383 0.53191697598
0.00000000000 0.46735686064 0.53264307976
0.00000000000 0.46713870764 0.53286129236
0.00000000000 0.46718978882 0.53281015158
0.00000000000 0.46749812365 0.53250193596
1.00000000000 0.46745240688 0.53254759312
0.00000000000 0.46775612235 0.53224384785
0.00000000000 0.46717026830 0.53282970190
1.00000000000 0.46758255363 0.53241747618
0.00000000000 0.46718093753 0.53281909227
0.00000000000 0.46774002910 0.53225994110
0.00000000000 0.46764135361 0.53235864639
0.00000000000 0.46805229783 0.53194773197
0.00000000000 0.46746703982 0.53253293037
1.00000000000 0.46735411882 0.53264588118
0.00000000000 0.46733647585 0.53266352415
0.00000000000 0.46733859181 0.53266143799
0.00000000000 0.46730273962 0.53269731998
0.00000000000 0.46708992124 0.53291010857
0.00000000000 0.46715763211 0.53284239769
0.00000000000 0.46723636985 0.53276360035
0.00000000000 0.46743881702 0.53256118298
0.00000000000 0.46742963791 0.53257036209
0.00000000000 0.46700623631 0.53299373388
0.00000000000 0.46804341674 0.53195661306
0.00000000000 0.46727523208 0.53272473812
0.00000000000 0.46704125404 0.53295874596
1.00000000000 0.46717345715 0.53282654285
0.00000000000 0.46771371365 0.53228628635
0.00000000000 0.46739935875 0.53260064125
0.00000000000 0.46709001064 0.53290998936
0.00000000000 0.46714377403 0.53285616636
0.00000000000 0.46735590696 0.53264409304
1.00000000000 0.46767309308 0.53232687712
0.00000000000 0.46696221828 0.53303778172
0.00000000000 0.46694764495 0.53305238485
0.00000000000 0.46706023812 0.53293973207
0.00000000000 0.46697157621 0.53302842379
0.00000000000 0.46716815233 0.53283184767
0.00000000000 0.46726095676 0.53273904324
0.00000000000 0.46744731069 0.53255265951
0.00000000000 0.46703705192 0.53296291828
1.00000000000 0.46726414561 0.53273588419
0.00000000000 0.46708968282 0.53291028738
0.00000000000 0.46733886003 0.53266113997
0.00000000000 0.46746945381 0.53253048658
0.00000000000 0.46739757061 0.53260242939
1.00000000000 0.46730524302 0.53269481659
0.00000000000 0.46804639697 0.53195363283
1.00000000000 0.46716842055 0.53283154964
0.00000000000 0.46727648377 0.53272348642
0.00000000000 0.46748292446 0.53251707554
0.00000000000 0.46729421616 0.53270572424
0.00000000000 0.46753847599 0.53246152401
0.00000000000 0.46718063951 0.53281939030
0.00000000000 0.46733874083 0.53266125917
0.00000000000 0.46717402339 0.53282594681
0.00000000000 0.46821478009 0.53178519011
0.00000000000 0.46767100692 0.53232902288
0.00000000000 0.46730679274 0.53269320726
0.00000000000 0.46796607971 0.53203392029
0.00000000000 0.46738561988 0.53261440992
1.00000000000 0.46710479259 0.53289520741
1.00000000000 0.46776878834 0.53223121166
0.00000000000 0.46723216772 0.53276789188
0.00000000000 0.46715059876 0.53284943104
0.00000000000 0.46788725257 0.53211277723
0.00000000000 0.46730482578 0.53269517422
0.00000000000 0.46713405848 0.53286594152
0.00000000000 0.46700486541 0.53299516439
0.00000000000 0.46763694286 0.53236305714
0.00000000000 0.46743154526 0.53256845474
0.00000000000 0.46698176861 0.53301823139
1.00000000000 0.46746644378 0.53253352642
0.00000000000 0.46762931347 0.53237074614
0.00000000000 0.46696472168 0.53303527832
0.00000000000 0.46758565307 0.53241431713
0.00000000000 0.46711742878 0.53288257122
0.00000000000 0.46729555726 0.53270441294
0.00000000000 0.46724075079 0.53275924921
0.00000000000 0.46718817949 0.53281182051
0.00000000000 0.46730864048 0.53269135952
0.00000000000 0.46711397171 0.53288602829
0.00000000000 0.46709442139 0.53290557861
0.00000000000 0.46718338132 0.53281664848
0.00000000000 0.46742311120 0.53257691860
1.00000000000 0.46757036448 0.53242963552
0.00000000000 0.46725818515 0.53274178505
0.00000000000 0.46772328019 0.53227674961
0.00000000000 0.46700346470 0.53299653530
0.00000000000 0.46707180142 0.53292816877
0.00000000000 0.46732574701 0.53267425299
0.00000000000 0.46697080135 0.53302919865
1.00000000000 0.46730008721 0.53269994259
0.00000000000 0.46766591072 0.53233408928
1.00000000000 0.46726065874 0.53273940086
0.00000000000 0.46756610274 0.53243392706
0.00000000000 0.46730428934 0.53269571066
0.00000000000 0.46719020605 0.53280985355
0.00000000000 0.46699163318 0.53300833702
0.00000000000 0.46745932102 0.53254067898
0.00000000000 0.46744948626 0.53255051374
0.00000000000 0.46727541089 0.53272461891
0.00000000000 0.46750751138 0.53249251842
0.00000000000 0.46708330512 0.53291672468
1.00000000000 0.46730646491 0.53269356489
0.00000000000 0.46698302031 0.53301703930
0.00000000000 0.46728265285 0.53271734715
0.00000000000 0.46701666713 0.53298330307
0.00000000000 0.46711149812 0.53288847208
1.00000000000 0.46750164032 0.53249830008
0.00000000000 0.46702349186 0.53297650814
0.00000000000 0.46696519852 0.53303480148
0.00000000000 0.46747425199 0.53252571821
0.00000000000 0.46717250347 0.53282749653
0.00000000000 0.46726971865 0.53273028135
1.00000000000 0.46720027924 0.53279972076
1.00000000000 0.46725547314 0.53274452686
1.00000000000 0.46774888039 0.53225111961
0.00000000000 0.46728590131 0.53271412849
0.00000000000 0.46736171842 0.53263831139
1.00000000000 0.46736955643 0.53263044357
1.00000000000 0.46725434065 0.53274565935
0.00000000000 0.46728366613 0.53271639347
0.00000000000 0.46701940894 0.53298056126
0.00000000000 0.46750909090 0.53249090910
0.00000000000 0.46780237556 0.53219759464
0.00000000000 0.46727690101 0.53272306919
1.00000000000 0.46777436137 0.53222560883
0.00000000000 0.46779704094 0.53220301867
0.00000000000 0.46727061272 0.53272944689
0.00000000000 0.46712094545 0.53287905455
0.00000000000 0.46749144793 0.53250855207
0.00000000000 0.46695137024 0.53304857016
0.00000000000 0.46765878797 0.53234118223
0.00000000000 0.46706813574 0.53293186426
1.00000000000 0.46778440475 0.53221559525
0.00000000000 0.46700832248 0.53299170732
0.00000000000 0.46774050593 0.53225946426
0.00000000000 0.46728447080 0.53271555901
0.00000000000 0.46708366275 0.53291636705
0.00000000000 0.46705636382 0.53294366598
1.00000000000 0.46709236503 0.53290766478
0.00000000000 0.46715858579 0.53284138441
0.00000000000 0.46725472808 0.53274524212
0.00000000000 0.46717023849 0.53282976151
0.00000000000 0.46759057045 0.53240942955
0.00000000000 0.46733987331 0.53266012669
0.00000000000 0.46743348241 0.53256654739
0.00000000000 0.46724894643 0.53275108337
1.00000000000 0.46705839038 0.53294163942
0.00000000000 0.46719256043 0.53280746937
0.00000000000 0.46730971336 0.53269022703
0.00000000000 0.46697419882 0.53302574158
0.00000000000 0.46805089712 0.53194910288
1.00000000000 0.46705481410 0.53294521570
0.00000000000 0.46716022491 0.53283983469
1.00000000000 0.46757853031 0.53242146969
0.00000000000 0.46701830626 0.53298175335
0.00000000000 0.46750393510 0.53249609470
0.00000000000 0.46719691157 0.53280311823
0.00000000000 0.46757364273 0.53242635727
0.00000000000 0.46765884757 0.53234118223
0.00000000000 0.46762186289 0.53237813711
0.00000000000 0.46715804935 0.53284198046
0.00000000000 0.46749779582 0.53250217438
0.00000000000 0.46701768041 0.53298234940
0.00000000000 0.46758836508 0.53241163492
0.00000000000 0.46715569496 0.53284430504
0.00000000000 0.46720099449 0.53279900551
0.00000000000 0.46745252609 0.53254747391
0.00000000000 0.46728813648 0.53271192312
1.00000000000 0.46715101600 0.53284895420
0.00000000000 0.46729913354 0.53270089626
0.00000000000 0.46743437648 0.53256565332
0.00000000000 0.46723380685 0.53276616335
0.00000000000 0.46720698476 0.53279304504
0.00000000000 0.46738323569 0.53261679411
0.00000000000 0.46742707491 0.53257292509
0.00000000000 0.46714448929 0.53285551071
0.00000000000 0.46716806293 0.53283190727
0.00000000000 0.46719121933 0.53280884027
0.00000000000 0.46711066365 0.53288930655
0.00000000000 0.46702656150 0.53297340870
0.00000000000 0.46697604656 0.53302395344
0.00000000000 0.46730229259 0.53269767761
0.00000000000 0.46764412522 0.53235590458
0.00000000000 0.46755680442 0.53244316578
0.00000000000 0.46723106503 0.53276896477
0.00000000000 0.46801868081 0.53198128939
0.00000000000 0.46703353524 0.53296643496
0.00000000000 0.46721708775 0.53278291225
0.00000000000 0.46708080173 0.53291922808
0.00000000000 0.46715494990 0.53284507990
0.00000000000 0.46712732315 0.53287273645
0.00000000000 0.46754029393 0.53245973587
0.00000000000 0.46772333980 0.53227669001
1.00000000000 0.46830466390 0.53169536591
0.00000000000 0.46740368009 0.53259629011
0.00000000000 0.46727153659 0.53272849321
0.00000000000 0.46717023849 0.53282982111
0.00000000000 0.46713262796 0.53286737204
1.00000000000 0.46730703115 0.53269296885
0.00000000000 0.46700525284 0.53299474716
0.00000000000 0.46729075909 0.53270924091
0.00000000000 0.46779963374 0.53220033646
0.00000000000 0.46714431047 0.53285574913
0.00000000000 0.46698755026 0.53301239014
0.00000000000 0.46734887362 0.53265112638
0.00000000000 0.46778631210 0.53221374750
0.00000000000 0.46749836206 0.53250163794
0.00000000000 0.46776866913 0.53223133087
0.00000000000 0.46755674481 0.53244328499
0.00000000000 0.46737390757 0.53262603283
0.00000000000 0.46705231071 0.53294771910
1.00000000000 0.46700888872 0.53299111128
0.00000000000 0.46718496084 0.53281503916
0.00000000000 0.46704113483 0.53295886517
1.00000000000 0.46721312404 0.53278690577
0.00000000000 0.46749538183 0.53250461817
0.00000000000 0.46713510156 0.53286492825
0.00000000000 0.46723002195 0.53276997805
0.00000000000 0.46722710133 0.53277295828
0.00000000000 0.46795848012 0.53204149008
0.00000000000 0.46709218621 0.53290784359
0.00000000000 0.46708831191 0.53291165829
0.00000000000 0.46775987744 0.53224015236
0.00000000000 0.46720540524 0.53279459476
1.00000000000 0.46764662862 0.53235334158
0.00000000000 0.46776548028 0.53223454952
0.00000000000 0.46719256043 0.53280746937
0.00000000000 0.46704608202 0.53295391798
0.00000000000 0.46712258458 0.53287744522
0.00000000000 0.46695774794 0.53304231167
0.00000000000 0.46727874875 0.53272122145
1.00000000000 0.46757400036 0.53242599964
0.00000000000 0.46736747026 0.53263252974
0.00000000000 0.46698373556 0.53301626444
0.00000000000 0.46718201041 0.53281795979
0.00000000000 0.46748676896 0.53251326084
0.00000000000 0.46722432971 0.53277570009
0.00000000000 0.46724075079 0.53275924921
0.00000000000 0.46735841036 0.53264153004
1.00000000000 0.46712604165 0.53287398815
0.00000000000 0.46731466055 0.53268539906
0.00000000000 0.46694204211 0.53305798769
0.00000000000 0.46820703149 0.53179293871
0.00000000000 0.46728426218 0.53271567822
0.00000000000 0.46729251742 0.53270745277
0.00000000000 0.46788784862 0.53211212158
0.00000000000 0.46696728468 0.53303271532
0.00000000000 0.46761295199 0.53238701820
0.00000000000 0.46757471561 0.53242528439
0.00000000000 0.46741279960 0.53258717060
1.00000000000 0.46720689535 0.53279310465
1.00000000000 0.46729350090 0.53270649910
1.00000000000 0.46730265021 0.53269737959
0.00000000000 0.46768680215 0.53231316805
0.00000000000 0.46747434139 0.53252565861
0.00000000000 0.46717944741 0.53282058239
0.00000000000 0.46736463904 0.53263539076
0.00000000000 0.46723115444 0.53276890516
0.00000000000 0.46746695042 0.53253304958
0.00000000000 0.46777224541 0.53222775459
0.00000000000 0.46715703607 0.53284293413
0.00000000000 0.46720367670 0.53279632330
0.00000000000 0.46735861897 0.53264141083
0.00000000000 0.46713247895 0.53286749125
0.00000000000 0.46702161431 0.53297835588
0.00000000000 0.46731904149 0.53268092871
1.00000000000 0.46754336357 0.53245663643
0.00000000000 0.46715119481 0.53284883499
0.00000000000 0.46708771586 0.53291231394
0.00000000000 0.46780538559 0.53219461441
0.00000000000 0.46791714430 0.53208285570
0.00000000000 0.46721085906 0.53278917074
0.00000000000 0.46778526902 0.53221476078
0.00000000000 0.46728935838 0.53271067142
0.00000000000 0.46756416559 0.53243577480
0.00000000000 0.46730720997 0.53269284964
0.00000000000 0.46727034450 0.53272968531
0.00000000000 0.46699976921 0.53300023079
0.00000000000 0.46740803123 0.53259199858
0.00000000000 0.46725532413 0.53274464607
0.00000000000 0.46719345450 0.53280651569
0.00000000000 0.46731275320 0.53268724680
0.00000000000 0.46761512756 0.53238481283
1.00000000000 0.46768042445 0.53231954575
1.00000000000 0.46803587675 0.53196412325
0.00000000000 0.46713408828 0.53286594152
0.00000000000 0.46744081378 0.53255915642
0.00000000000 0.46714973450 0.53285026550
0.00000000000 0.46726167202 0.53273832798
0.00000000000 0.46782147884 0.53217852116
0.00000000000 0.46703550220 0.53296446800
0.00000000000 0.46785390377 0.53214615583
0.00000000000 0.46768736839 0.53231263161
0.00000000000 0.46823495626 0.53176510334
0.00000000000 0.46725505590 0.53274494410
0.00000000000 0.46716284752 0.53283715248
0.00000000000 0.46741169691 0.53258830309
0.00000000000 0.46719506383 0.53280496597
0.00000000000 0.46723464131 0.53276538849
0.00000000000 0.46720048785 0.53279948235
0.00000000000 0.46722671390 0.53277325630
0.00000000000 0.46702858806 0.53297138214
0.00000000000 0.46723642945 0.53276354074
0.00000000000 0.46738791466 0.53261208534
1.00000000000 0.46776518226 0.53223478794
1.00000000000 0.46760150790 0.53239846230
0.00000000000 0.46808660030 0.53191339970
0.00000000000 0.46765473485 0.53234529495
0.00000000000 0.46720510721 0.53279489279
0.00000000000 0.46734672785 0.53265327215
0.00000000000 0.46700441837 0.53299552202
1.00000000000 0.46766182780 0.53233820200
0.00000000000 0.46756735444 0.53243267536
0.00000000000 0.46738946438 0.53261059523
0.00000000000 0.46722757816 0.53277248144
0.00000000000 0.46702703834 0.53297293186
0.00000000000 0.46753901243 0.53246098757
0.00000000000 0.46705660224 0.53294342756
0.00000000000 0.46811693907 0.53188312054
0.00000000000 0.46711179614 0.53288823366
0.00000000000 0.46697717905 0.53302282095
0.00000000000 0.46719163656 0.53280836344
0.00000000000 0.46736314893 0.53263688087
0.00000000000 0.46736910939 0.53263086081
0.00000000000 0.46766117215 0.53233879805
0.00000000000 0.46714437008 0.53285557032
0.00000000000 0.46699145436 0.53300857544
1.00000000000 0.46763283014 0.53236711025
0.00000000000 0.46714371443 0.53285628557
1.00000000000 0.46768540144 0.53231459856
0.00000000000 0.46710559726 0.53289443254
0.00000000000 0.46715047956 0.53284955025
0.00000000000 0.46719738841 0.53280264139
0.00000000000 0.46747186780 0.53252816200
0.00000000000 0.46746629477 0.53253370523
0.00000000000 0.46751433611 0.53248566389
0.00000000000 0.46700188518 0.53299814463
0.00000000000 0.46742272377 0.53257727623
0.00000000000 0.46733796597 0.53266203403
0.00000000000 0.46763157845 0.53236842155
0.00000000000 0.46713623405 0.53286379576
0.00000000000 0.46744510531 0.53255486488
0.00000000000 0.46706572175 0.53293430805
0.00000000000 0.46719226241 0.53280770779
0.00000000000 0.46713450551 0.53286552429
0.00000000000 0.46787545085 0.53212451935
0.00000000000 0.46734601259 0.53265398741
0.00000000000 0.46736750007 0.53263247013
1.00000000000 0.46739381552 0.53260618448
0.00000000000 0.46696385741 0.53303617239
0.00000000000 0.46713656187 0.53286343813
0.00000000000 0.46722567081 0.53277426958
0.00000000000 0.46778333187 0.53221672773
1.00000000000 0.46723169088 0.53276824951
0.00000000000 0.46758431196 0.53241574764
1.00000000000 0.46780046821 0.53219956160
0.00000000000 0.46715804935 0.53284192085
0.00000000000 0.46722307801 0.53277695179
0.00000000000 0.46714249253 0.53285753727
1.00000000000 0.46758484840 0.53241509199
0.00000000000 0.46720767021 0.53279238939
0.00000000000 0.46744334698 0.53255659342
0.00000000000 0.46714121103 0.53285878897
0.00000000000 0.46726903319 0.53273093700
0.00000000000 0.46773618460 0.53226381540
0.00000000000 0.46712899208 0.53287100792
0.00000000000 0.46695628762 0.53304368258
0.00000000000 0.46692582965 0.53307420015
1.00000000000 0.46720570326 0.53279429674
0.00000000000 0.46753719449 0.53246283531
0.00000000000 0.46699574590 0.53300422430
0.00000000000 0.46707212925 0.53292781115
1.00000000000 0.46737962961 0.53262037039
0.00000000000 0.46745702624 0.53254300356
0.00000000000 0.46743467450 0.53256535530
0.00000000000 0.46713802218 0.53286200762
0.00000000000 0.46703624725 0.53296369314
0.00000000000 0.46712955832 0.53287041187
0.00000000000 0.46737918258 0.53262078762
0.00000000000 0.46733319759 0.53266680241
0.00000000000 0.46768516302 0.53231483698
0.00000000000 0.46752747893 0.53247255087
0.00000000000 0.46719521284 0.53280478716
0.00000000000 0.46693274379 0.53306722641
0.00000000000 0.46725070477 0.53274923563
0.00000000000 0.46729895473 0.53270101547
0.00000000000 0.46748912334 0.53251087666
0.00000000000 0.46726289392 0.53273707628
0.00000000000 0.46739810705 0.53260183334
0.00000000000 0.46761876345 0.53238123655
1.00000000000 0.46737191081 0.53262811899
0.00000000000 0.46700027585 0.53299969435
0.00000000000 0.46751827002 0.53248167038
0.00000000000 0.46741601825 0.53258401155
0.00000000000 0.46709644794 0.53290355206
0.00000000000 0.46742874384 0.53257125616
0.00000000000 0.46726450324 0.53273552656
0.00000000000 0.46719714999 0.53280287981
0.00000000000 0.46745175123 0.53254830837
0.00000000000 0.46706080437 0.53293919563
0.00000000000 0.46729591489 0.53270405531
0.00000000000 0.46736857295 0.53263145685
0.00000000000 0.46759125590 0.53240871429
0.00000000000 0.46741190553 0.53258812428
1.00000000000 0.46782180667 0.53217822313
0.00000000000 0.46701639891 0.53298360109
0.00000000000 0.46703249216 0.53296750784
0.00000000000 0.46740907431 0.53259086609
0.00000000000 0.46737843752 0.53262150288
0.00000000000 0.46714806557 0.53285193443
0.00000000000 0.46733021736 0.53266978264
0.00000000000 0.46771913767 0.53228086233
0.00000000000 0.46726024151 0.53273975849
0.00000000000 0.46711567044 0.53288429976
1.00000000000 0.46755638719 0.53244358301
0.00000000000 0.46695226431 0.53304773569
1.00000000000 0.46749120951 0.53250879049
0.00000000000 0.46724429727 0.53275567293
0.00000000000 0.46754541993 0.53245460987
0.00000000000 0.46717512608 0.53282487392
0.00000000000 0.46705880761 0.53294122219
0.00000000000 0.46740159392 0.53259837627
1.00000000000 0.46725246310 0.53274750710
0.00000000000 0.46721488237 0.53278511763
0.00000000000 0.46730354428 0.53269648552
0.00000000000 0.46765655279 0.53234344721
0.00000000000 0.46732303500 0.53267699480
0.00000000000 0.46771630645 0.53228372335
0.00000000000 0.46747627854 0.53252369165
0.00000000000 0.46722838283 0.53277164698
0.00000000000 0.46698904037 0.53301095963
0.00000000000 0.46720468998 0.53279536963
0.00000000000 0.46804448962 0.53195548058
0.00000000000 0.46724027395 0.53275972605
0.00000000000 0.46728888154 0.53271114826
0.00000000000 0.46712481976 0.53287523985
0.00000000000 0.46761110425 0.53238892555
1.00000000000 0.46727189422 0.53272807598
0.00000000000 0.46707624197 0.53292375803
0.00000000000 0.46797215939 0.53202778101
0.00000000000 0.46775081754 0.53224921227
1.00000000000 0.46716251969 0.53283745050
0.00000000000 0.46703246236 0.53296756744
0.00000000000 0.46713647246 0.53286355734
0.00000000000 0.46757963300 0.53242033720
0.00000000000 0.46722567081 0.53277426958
0.00000000000 0.46733629704 0.53266364336
0.00000000000 0.46784079075 0.53215914965
0.00000000000 0.46763122082 0.53236877918
0.00000000000 0.46764910221 0.53235089779
1.00000000000 0.46811726689 0.53188270330
0.00000000000 0.46700713038 0.53299289942
0.00000000000 0.46717754006 0.53282243013
0.00000000000 0.46751549840 0.53248453140
0.00000000000 0.46705508232 0.53294491768
0.00000000000 0.46755656600 0.53244346380
0.00000000000 0.46719750762 0.53280246258
0.00000000000 0.46712934971 0.53287065029
0.00000000000 0.46790832281 0.53209167719
0.00000000000 0.46775209904 0.53224790096
0.00000000000 0.46730577946 0.53269422054
0.00000000000 0.46728712320 0.53271293640
0.00000000000 0.46718540788 0.53281462193
0.00000000000 0.46739351749 0.53260642290
0.00000000000 0.46724045277 0.53275954723
0.00000000000 0.46734005213 0.53265994787
0.00000000000 0.46737444401 0.53262549639
1.00000000000 0.46791785955 0.53208214045
0.00000000000 0.46734210849 0.53265786171
0.00000000000 0.46701383591 0.53298622370
0.00000000000 0.46739405394 0.53260594606
0.00000000000 0.46726468205 0.53273528814
0.00000000000 0.46703919768 0.53296083212
0.00000000000 0.46732312441 0.53267687559
0.00000000000 0.46720045805 0.53279954195
1.00000000000 0.46770536900 0.53229463100
0.00000000000 0.46763551235 0.53236448765
0.00000000000 0.46724817157 0.53275179863
0.00000000000 0.46710050106 0.53289949894
1.00000000000 0.46743524075 0.53256481886
0.00000000000 0.46728572249 0.53271424770
0.00000000000 0.46721279621 0.53278720379
0.00000000000 0.46712130308 0.53287875652
0.00000000000 0.46824505925 0.53175491095
0.00000000000 0.46713009477 0.53286987543
0.00000000000 0.46724021435 0.53275978565
0.00000000000 0.46734338999 0.53265661001
0.00000000000 0.46720215678 0.53279787302
0.00000000000 0.46764114499 0.53235882521
0.00000000000 0.46749007702 0.53250998259
0.00000000000 0.46769362688 0.53230631351
0.00000000000 0.46719190478 0.53280812502
0.00000000000 0.46783506870 0.53216493130
0.00000000000 0.46748411655 0.53251588345
0.00000000000 0.46719121933 0.53280878067
0.00000000000 0.46744030714 0.53255963326
0.00000000000 0.46748393774 0.53251612186
0.00000000000 0.46735450625 0.53264552355
0.00000000000 0.46755644679 0.53244358301
0.00000000000 0.46734839678 0.53265160322
0.00000000000 0.46707472205 0.53292524815
0.00000000000 0.46745592356 0.53254401684
0.00000000000 0.46713218093 0.53286784887
0.00000000000 0.46727952361 0.53272044659
0.00000000000 0.46726843715 0.53273153305
0.00000000000 0.46710959077 0.53289043903
1.00000000000 0.46749711037 0.53250294924
0.00000000000 0.46744954586 0.53255045414
0.00000000000 0.46759849787 0.53240156174
0.00000000000 0.46746858954 0.53253144026
0.00000000000 0.46761971712 0.53238028288
0.00000000000 0.46736112237 0.53263890743
0.00000000000 0.46694535017 0.53305464983
1.00000000000 0.46767655015 0.53232342005
0.00000000000 0.46742638946 0.53257358074
0.00000000000 0.46803373098 0.53196626902
0.00000000000 0.46707350016 0.53292649984
0.00000000000 0.46736660600 0.53263342381
0.00000000000 0.46718439460 0.53281557560
0.00000000000 0.46781089902 0.53218913078
0.00000000000 0.46719658375 0.53280341625
0.00000000000 0.46732214093 0.53267788887
0.00000000000 0.46717530489 0.53282469511
0.00000000000 0.46765196323 0.53234809637
0.00000000000 0.46713715792 0.53286284208
0.00000000000 0.46714624763 0.53285378218
1.00000000000 0.46757635474 0.53242361546
0.00000000000 0.46719101071 0.53280895948
0.00000000000 0.46739751101 0.53260248899
0.00000000000 0.46712565422 0.53287434578
1.00000000000 0.46727460623 0.53272539377
1.00000000000 0.46795886755 0.53204119205
1.00000000000 0.46756699681 0.53243297338
0.00000000000 0.46778300405 0.53221702576
0.00000000000 0.46706822515 0.53293180466
0.00000000000 0.46772551537 0.53227448463
0.00000000000 0.46719509363 0.53280490637
0.00000000000 0.46730089188 0.53269910812
0.00000000000 0.46716800332 0.53283196688
0.00000000000 0.46728008986 0.53271991014
0.00000000000 0.46764871478 0.53235125542
0.00000000000 0.46737328172 0.53262674809
0.00000000000 0.46721586585 0.53278410435
0.00000000000 0.46791222692 0.53208774328
0.00000000000 0.46738973260 0.53261023760
0.00000000000 0.46723133326 0.53276866674
0.00000000000 0.46735984087 0.53264015913
0.00000000000 0.46720835567 0.53279167414
0.00000000000 0.46708950400 0.53291046619
0.00000000000 0.46733674407 0.53266328573
0.00000000000 0.46732804179 0.53267198801
0.00000000000 0.46714189649 0.53285807371
1.00000000000 0.46716576815 0.53283417225
1.00000000000 0.46758618951 0.53241378069
1.00000000000 0.46707552671 0.53292453289
1.00000000000 0.46778434515 0.53221571445
1.00000000000 0.46752652526 0.53247344494
1.00000000000 0.46760612726 0.53239381313
0.00000000000 0.46740800142 0.53259205818
0.00000000000 0.46723899245 0.53276097775
0.00000000000 0.46739020944 0.53260982037
1.00000000000 0.46724867821 0.53275138140
0.00000000000 0.46792849898 0.53207153082
0.00000000000 0.46732878685 0.53267121315
0.00000000000 0.46750244498 0.53249758482
0.00000000000 0.46760842204 0.53239154816
0.00000000000 0.46737721562 0.53262275457
0.00000000000 0.46777597070 0.53222405910
0.00000000000 0.46732899547 0.53267103434
0.00000000000 0.46774008870 0.53225994110
0.00000000000 0.46743753552 0.53256243467
0.00000000000 0.46775579453 0.53224420547
0.00000000000 0.46703922749 0.53296071291
1.00000000000 0.46707871556 0.53292131424
0.00000000000 0.46773180366 0.53226822615
0.00000000000 0.46716096997 0.53283905983
0.00000000000 0.46702161431 0.53297835588
0.00000000000 0.46712446213 0.53287553787
0.00000000000 0.46725177765 0.53274822235
0.00000000000 0.46722710133 0.53277289867
0.00000000000 0.46710336208 0.53289663792
0.00000000000 0.46704018116 0.53295975924
0.00000000000 0.46762648225 0.53237354755
0.00000000000 0.46733778715 0.53266215324
0.00000000000 0.46746638417 0.53253364563
0.00000000000 0.46707025170 0.53292971849
1.00000000000 0.46766126156 0.53233873844
0.00000000000 0.46779873967 0.53220129013
0.00000000000 0.46763107181 0.53236889839
0.00000000000 0.46706989408 0.53293007612
0.00000000000 0.46711459756 0.53288537264
0.00000000000 0.46720975637 0.53279024363
0.00000000000 0.46730315685 0.53269684315
0.00000000000 0.46732020378 0.53267979622
0.00000000000 0.46716025472 0.53283971548
0.00000000000 0.46747839451 0.53252166510
0.00000000000 0.46704104543 0.53295892477
0.00000000000 0.46716117859 0.53283882141
0.00000000000 0.46733731031 0.53266268969
0.00000000000 0.46695673466 0.53304320574
1.00000000000 0.46780696511 0.53219306469
0.00000000000 0.46769279242 0.53230720758
1.00000000000 0.46780356765 0.53219646215
0.00000000000 0.46698823571 0.53301179409
0.00000000000 0.46700197458 0.53299796581
0.00000000000 0.46731364727 0.53268635273
0.00000000000 0.46729066968 0.53270936012
1.00000000000 0.46759754419 0.53240245581
0.00000000000 0.46704807878 0.53295195103
1.00000000000 0.46752902865 0.53247094154
0.00000000000 0.46729278564 0.53270721436
0.00000000000 0.46726027131 0.53273969889
0.00000000000 0.46780759096 0.53219246864
0.00000000000 0.46781939268 0.53218054771
0.00000000000 0.46712988615 0.53287011385
0.00000000000 0.46758052707 0.53241944313
1.00000000000 0.46750959754 0.53249043226
0.00000000000 0.46712753177 0.53287243843
0.00000000000 0.46697583795 0.53302419186
0.00000000000 0.46761241555 0.53238755465
0.00000000000 0.46705818176 0.53294175863
0.00000000000 0.46696877480 0.53303122520
0.00000000000 0.46720194817 0.53279805183
0.00000000000 0.46711438894 0.53288567066
0.00000000000 0.46718114614 0.53281891346
1.00000000000 0.46723672748 0.53276324272
1.00000000000 0.46731376648 0.53268629313
0.00000000000 0.46729278564 0.53270715475
0.00000000000 0.46724706888 0.53275293112
1.00000000000 0.46718987823 0.53281009197
0.00000000000 0.46720489860 0.53279513121
0.00000000000 0.46730950475 0.53269046545
0.00000000000 0.46724197268 0.53275799751
0.00000000000 0.46725910902 0.53274089098
0.00000000000 0.46723935008 0.53276067972
0.00000000000 0.46718496084 0.53281503916
0.00000000000 0.46713289618 0.53286707401
0.00000000000 0.46730017662 0.53269988298
0.00000000000 0.46742847562 0.53257155418
1.00000000000 0.46747541428 0.53252464533
1.00000000000 0.46724191308 0.53275811672
0.00000000000 0.46709397435 0.53290599585
0.00000000000 0.46697482467 0.53302520514
1.00000000000 0.46735015512 0.53264987469
1.00000000000 0.46766236424 0.53233760595
0.00000000000 0.46726933122 0.53273069859
0.00000000000 0.46727797389 0.53272199631
0.00000000000 0.46720603108 0.53279399872
0.00000000000 0.46716231108 0.53283768892
0.00000000000 0.46740859747 0.53259134293
0.00000000000 0.46721869707 0.53278136253
0.00000000000 0.46738877892 0.53261119127
0.00000000000 0.46744304895 0.53255695105
0.00000000000 0.46722444892 0.53277552128
0.00000000000 0.46711504459 0.53288495541
0.00000000000 0.46746489406 0.53253507614
0.00000000000 0.46695721149 0.53304278851
0.00000000000 0.46727517247 0.53272485733
0.00000000000 0.46726360917 0.53273642063
0.00000000000 0.46730956435 0.53269040585
0.00000000000 0.46790534258 0.53209459782
0.00000000000 0.46733003855 0.53266996145
1.00000000000 0.46729335189 0.53270661831
0.00000000000 0.46741327643 0.53258669376
1.00000000000 0.46749135852 0.53250861168
0.00000000000 0.46722498536 0.53277498484
0.00000000000 0.46775463223 0.53224533796
0.00000000000 0.46714046597 0.53285956383
0.00000000000 0.46713960171 0.53286039829
1.00000000000 0.46777388453 0.53222614527
1.00000000000 0.46731743217 0.53268259764
0.00000000000 0.46723282337 0.53276717663
0.00000000000 0.46733549237 0.53266453743
0.00000000000 0.46718418598 0.53281581402
0.00000000000 0.46718749404 0.53281247616
0.00000000000 0.46767950058 0.53232049942
0.00000000000 0.46746605635 0.53253394365
0.00000000000 0.46733012795 0.53266990185
0.00000000000 0.46724435687 0.53275567293
0.00000000000 0.46706637740 0.53293365240
0.00000000000 0.46701973677 0.53298026323
0.00000000000 0.46724429727 0.53275567293
0.00000000000 0.46698212624 0.53301787376
0.00000000000 0.46708804369 0.53291195631
0.00000000000 0.46699991822 0.53300011158
0.00000000000 0.46743384004 0.53256613016
0.00000000000 0.46737834811 0.53262168169
1.00000000000 0.46751543880 0.53248453140
0.00000000000 0.46700942516 0.53299051523
0.00000000000 0.46861097217 0.53138899803
0.00000000000 0.46754193306 0.53245800734
0.00000000000 0.46756008267 0.53243994713
0.00000000000 0.46711790562 0.53288209438
0.00000000000 0.46741843224 0.53258156776
0.00000000000 0.46737769246 0.53262233734
0.00000000000 0.46712574363 0.53287428617
0.00000000000 0.46709063649 0.53290939331
0.00000000000 0.46748548746 0.53251451254
0.00000000000 0.46731436253 0.53268563747
1.00000000000 0.46737283468 0.53262722492
0.00000000000 0.46692937613 0.53307062387
0.00000000000 0.46755707264 0.53244298697
0.00000000000 0.46723315120 0.53276687860
0.00000000000 0.46726763248 0.53273236752
0.00000000000 0.46733537316 0.53266459703
0.00000000000 0.46734574437 0.53265428543
0.00000000000 0.46715649962 0.53284347057
0.00000000000 0.46698084474 0.53301918507
0.00000000000 0.46699163318 0.53300833702
0.00000000000 0.46723946929 0.53276056051
0.00000000000 0.46725958586 0.53274041414
0.00000000000 0.46707287431 0.53292709589
0.00000000000 0.46755915880 0.53244078159
0.00000000000 0.46776106954 0.53223890066
0.00000000000 0.46771904826 0.53228098154
0.00000000000 0.46718025208 0.53281968832
0.00000000000 0.46735918522 0.53264081478
0.00000000000 0.46710842848 0.53289157152
0.00000000000 0.46722763777 0.53277242184
0.00000000000 0.46725308895 0.53274697065
0.00000000000 0.46739110351 0.53260886669
1.00000000000 0.46788635850 0.53211367130
0.00000000000 0.46739089489 0.53260910511
0.00000000000 0.46735808253 0.53264188766
0.00000000000 0.46747073531 0.53252929449
0.00000000000 0.46722078323 0.53277921677
0.00000000000 0.46707424521 0.53292578459
0.00000000000 0.46777558327 0.53222441673
0.00000000000 0.46777981520 0.53222018480
0.00000000000 0.46732303500 0.53267699480
0.00000000000 0.46727168560 0.53272825480
1.00000000000 0.46786692739 0.53213304281
0.00000000000 0.46706080437 0.53293919563
0.00000000000 0.46736505628 0.53263497353
0.00000000000 0.46710899472 0.53289097548
0.00000000000 0.46766540408 0.53233462572
0.00000000000 0.46723961830 0.53276038170
0.00000000000 0.46803370118 0.53196632862
0.00000000000 0.46699681878 0.53300321102
0.00000000000 0.46717491746 0.53282511234
0.00000000000 0.46714490652 0.53285509348
0.00000000000 0.46723657846 0.53276342154
0.00000000000 0.46755346656 0.53244656324
0.00000000000 0.46728664637 0.53271341324
0.00000000000 0.46710091829 0.53289908171
0.00000000000 0.46752443910 0.53247553110
0.00000000000 0.46741014719 0.53258985281
0.00000000000 0.46735963225 0.53264033794
0.00000000000 0.46699541807 0.53300458193
0.00000000000 0.46726045012 0.53273952007
0.00000000000 0.46763613820 0.53236389160
0.00000000000 0.46689340472 0.53310656548
0.00000000000 0.46746277809 0.53253722191
0.00000000000 0.46733736992 0.53266263008
1.00000000000 0.46741440892 0.53258556128
0.00000000000 0.46747416258 0.53252583742
0.00000000000 0.46712651849 0.53287351131
0.00000000000 0.46722987294 0.53277015686
0.00000000000 0.46729341149 0.53270655870
0.00000000000 0.46713852882 0.53286147118
0.00000000000 0.46731045842 0.53268951178
0.00000000000 0.46738734841 0.53261268139
0.00000000000 0.46696287394 0.53303712606
0.00000000000 0.46724137664 0.53275859356
0.00000000000 0.46717837453 0.53282165527
0.00000000000 0.46801993251 0.53198009729
0.00000000000 0.46728521585 0.53271472454
0.00000000000 0.46799051762 0.53200948238
0.00000000000 0.46715429425 0.53284567595
0.00000000000 0.46705508232 0.53294497728
0.00000000000 0.46744334698 0.53255665302
0.00000000000 0.46719008684 0.53280991316
0.00000000000 0.46810722351 0.53189277649
1.00000000000 0.46772098541 0.53227901459
0.00000000000 0.46710371971 0.53289628029
1.00000000000 0.46758559346 0.53241443634
0.00000000000 0.46706673503 0.53293329477
1.00000000000 0.46745213866 0.53254789114
1.00000000000 0.46772551537 0.53227442503
0.00000000000 0.46783065796 0.53216934204
0.00000000000 0.46716272831 0.53283733130
0.00000000000 0.46739766002 0.53260231018
0.00000000000 0.46714580059 0.53285419941
1.00000000000 0.46738594770 0.53261411190
0.00000000000 0.46700164676 0.53299838305
0.00000000000 0.46755498648 0.53244501352
1.00000000000 0.46726366878 0.53273636103
0.00000000000 0.46737885475 0.53262114525
0.00000000000 0.46742442250 0.53257554770
0.00000000000 0.46747177839 0.53252822161
0.00000000000 0.46741837263 0.53258162737
1.00000000000 0.46701160073 0.53298842907
0.00000000000 0.46694606543 0.53305393457
0.00000000000 0.46693235636 0.53306764364
0.00000000000 0.46719950438 0.53280049562
1.00000000000 0.46742984653 0.53257012367
1.00000000000 0.46777051687 0.53222948313
0.00000000000 0.46774679422 0.53225320578
0.00000000000 0.46749037504 0.53250962496
0.00000000000 0.46702969074 0.53297036886
0.00000000000 0.46696963906 0.53303039074
0.00000000000 0.46736028790 0.53263974190
0.00000000000 0.46735131741 0.53264874220
0.00000000000 0.46706038713 0.53293961287
0.00000000000 0.46776577830 0.53223425150
0.00000000000 0.46734637022 0.53265357018
0.00000000000 0.46713599563 0.53286403418
0.00000000000 0.46708124876 0.53291875124
0.00000000000 0.46726739407 0.53273260593
0.00000000000 0.46751019359 0.53248983622
0.00000000000 0.46743965149 0.53256040812
0.00000000000 0.46741169691 0.53258830309
0.00000000000 0.46737352014 0.53262645006
0.00000000000 0.46739459038 0.53260540962
0.00000000000 0.46785870194 0.53214132786
0.00000000000 0.46719771624 0.53280222416
0.00000000000 0.46704262495 0.53295737505
0.00000000000 0.46740528941 0.53259474039
0.00000000000 0.46699863672 0.53300136328
0.00000000000 0.46758010983 0.53241986036
0.00000000000 0.46740549803 0.53259450197
0.00000000000 0.46702682972 0.53297317028
0.00000000000 0.46724104881 0.53275895119
0.00000000000 0.46759328246 0.53240668774
0.00000000000 0.46700486541 0.53299516439
0.00000000000 0.46727189422 0.53272807598
0.00000000000 0.46717253327 0.53282749653
0.00000000000 0.46743094921 0.53256905079
0.00000000000 0.46701979637 0.53298020363
0.00000000000 0.46762046218 0.53237950802
1.00000000000 0.46784138680 0.53215861320
0.00000000000 0.46717721224 0.53282272816
0.00000000000 0.46740123630 0.53259873390
0.00000000000 0.46770837903 0.53229159117
0.00000000000 0.46751508117 0.53248488903
1.00000000000 0.46736583114 0.53263419867
0.00000000000 0.46710899472 0.53289097548
0.00000000000 0.46710246801 0.53289753199
0.00000000000 0.46747708321 0.53252291679
0.00000000000 0.46706727147 0.53293275833
0.00000000000 0.46735069156 0.53264927864
0.00000000000 0.46744215488 0.53255784512
0.00000000000 0.46700865030 0.53299134970
0.00000000000 0.46727564931 0.53272438049
0.00000000000 0.46733966470 0.53266030550
0.00000000000 0.46711340547 0.53288656473
0.00000000000 0.46730849147 0.53269147873
0.00000000000 0.46718540788 0.53281462193
0.00000000000 0.46710059047 0.53289943933
0.00000000000 0.46729901433 0.53270095587
0.00000000000 0.46737414598 0.53262585402
0.00000000000 0.46716222167 0.53283780813
0.00000000000 0.46788272262 0.53211730719
1.00000000000 0.46704173088 0.53295820951
0.00000000000 0.46740400791 0.53259599209
0.00000000000 0.46798434854 0.53201568127
0.00000000000 0.46720048785 0.53279954195
0.00000000000 0.46728190780 0.53271806240
0.00000000000 0.46706295013 0.53293704987
0.00000000000 0.46763688326 0.53236317635
0.00000000000 0.46695685387 0.53304314613
0.00000000000 0.46734124422 0.53265881538
0.00000000000 0.46746945381 0.53253048658
0.00000000000 0.46724969149 0.53275036812
0.00000000000 0.46763822436 0.53236174583
1.00000000000 0.46821957827 0.53178042173
0.00000000000 0.46714910865 0.53285086155
0.00000000000 0.46708372235 0.53291630745
0.00000000000 0.46800765395 0.53199237585
0.00000000000 0.46749052405 0.53250950575
1.00000000000 0.46751379967 0.53248620033
0.00000000000 0.46711105108 0.53288894892
0.00000000000 0.46729239821 0.53270763159
0.00000000000 0.46732020378 0.53267979622
0.00000000000 0.46699100733 0.53300899267
0.00000000000 0.46736639738 0.53263366222
0.00000000000 0.46759423614 0.53240579367
0.00000000000 0.46698108315 0.53301888704
0.00000000000 0.46706518531 0.53293478489
0.00000000000 0.46718046069 0.53281950951
0.00000000000 0.46702048182 0.53297954798
0.00000000000 0.46716928482 0.53283065557
0.00000000000 0.46710506082 0.53289490938
0.00000000000 0.46713548899 0.53286451101
1.00000000000 0.46731823683 0.53268170357
0.00000000000 0.46713903546 0.53286099434
0.00000000000 0.46701464057 0.53298538923
1.00000000000 0.46753534675 0.53246468306
0.00000000000 0.46739453077 0.53260552883
0.00000000000 0.46733006835 0.53266990185
0.00000000000 0.46739116311 0.53260886669
0.00000000000 0.46703445911 0.53296554089
0.00000000000 0.46742105484 0.53257900476
0.00000000000 0.46704626083 0.53295367956
0.00000000000 0.46730932593 0.53269064426
0.00000000000 0.46721661091 0.53278344870
0.00000000000 0.46709138155 0.53290867805
0.00000000000 0.46702498198 0.53297501802
0.00000000000 0.46700572968 0.53299427032
0.00000000000 0.46708366275 0.53291636705
0.00000000000 0.46724388003 0.53275614977
0.00000000000 0.46725469828 0.53274524212
0.00000000000 0.46780583262 0.53219419718
0.00000000000 0.46761846542 0.53238153458
0.00000000000 0.46710392833 0.53289604187
0.00000000000 0.46712759137 0.53287243843
0.00000000000 0.46777516603 0.53222483397
0.00000000000 0.46820712090 0.53179287910
0.00000000000 0.46734279394 0.53265714645
0.00000000000 0.46705323458 0.53294676542
1.00000000000 0.46763911843 0.53236085176
0.00000000000 0.46739467978 0.53260529041
1.00000000000 0.46787387133 0.53212606907
0.00000000000 0.46717396379 0.53282606602
0.00000000000 0.46728587151 0.53271412849
0.00000000000 0.46753975749 0.53246021271
1.00000000000 0.46712562442 0.53287434578
0.00000000000 0.46727329493 0.53272670507
0.00000000000 0.46733847260 0.53266155720
0.00000000000 0.46820309758 0.53179693222
1.00000000000 0.46755060554 0.53244936466
0.00000000000 0.46706646681 0.53293353319
0.00000000000 0.46698257327 0.53301739693
0.00000000000 0.46718391776 0.53281611204
0.00000000000 0.46719703078 0.53280293941
0.00000000000 0.46693721414 0.53306281567
0.00000000000 0.46712121367 0.53287875652
0.00000000000 0.46775478125 0.53224521875
0.00000000000 0.46720382571 0.53279614449
0.00000000000 0.46718546748 0.53281450272
0.00000000000 0.46737074852 0.53262925148
0.00000000000 0.46769648790 0.53230351210
0.00000000000 0.46723994613 0.53276002407
0.00000000000 0.46762856841 0.53237140179
1.00000000000 0.46753820777 0.53246182203
0.00000000000 0.46734809875 0.53265190125
0.00000000000 0.46734821796 0.53265178204
0.00000000000 0.46697604656 0.53302395344
0.00000000000 0.46755430102 0.53244566917
0.00000000000 0.46703124046 0.53296881914
0.00000000000 0.46718221903 0.53281784058
0.00000000000 0.46705350280 0.53294652700
0.00000000000 0.46720001101 0.53279995918
0.00000000000 0.46719062328 0.53280937672
0.00000000000 0.46699565649 0.53300434351
0.00000000000 0.46748065948 0.53251934052
0.00000000000 0.46728760004 0.53271239996
0.00000000000 0.46721595526 0.53278404474
0.00000000000 0.46723452210 0.53276544809
1.00000000000 0.46758538485 0.53241455555
0.00000000000 0.46717891097 0.53282111883
0.00000000000 0.46727561951 0.53272438049
0.00000000000 0.46740514040 0.53259480000
0.00000000000 0.46781742573 0.53218251467
0.00000000000 0.46723824739 0.53276169300
0.00000000000 0.46758452058 0.53241550922
0.00000000000 0.46738651395 0.53261345625
0.00000000000 0.46760025620 0.53239971399
0.00000000000 0.46714696288 0.53285306692
