1.00000000000 0.20272940397 0.79727059603
0.00000000000 0.99793195724 0.00206801831
0.00000000000 0.43380334973 0.56619662046
0.00000000000 0.99349689484 0.00650306139
0.00000000000 0.99717879295 0.00282125082
0.00000000000 0.99799466133 0.00200536288
0.00000000000 0.99792140722 0.00207860302
0.00000000000 0.99788182974 0.00211819052
0.00000000000 0.85894280672 0.14105719328
0.00000000000 0.99788457155 0.00211547199
1.00000000000 0.85423064232 0.14576935768
0.00000000000 0.99729675055 0.00270330789
1.00000000000 0.00348244281 0.99651753902
0.00000000000 0.99780791998 0.00219205511
0.00000000000 0.99770301580 0.00229697954
0.00000000000 0.99766600132 0.00233407319
0.00000000000 0.99788826704 0.00211167848
0.00000000000 0.98867899179 0.01132100541
0.00000000000 0.99735707045 0.00264293444
0.00000000000 0.98158973455 0.01841024496
0.00000000000 0.43072408438 0.56927591562
0.00000000000 0.98454535007 0.01545469183
1.00000000000 0.00337023358 0.99662977457
0.00000000000 0.99635845423 0.00364147150
0.00000000000 0.95491558313 0.04508443922
0.00000000000 0.98369967937 0.01630032994
0.00000000000 0.99234241247 0.00765760569
0.00000000000 0.99743098021 0.00256907125
0.00000000000 0.99798798561 0.00201197271
0.00000000000 0.99799841642 0.00200152653
0.00000000000 0.99796581268 0.00203420618
0.00000000000 0.99778228998 0.00221767556
0.00000000000 0.99721461535 0.00278543797
0.00000000000 0.91678196192 0.08321804553
0.00000000000 0.00886374153 0.99113631248
0.00000000000 0.82794517279 0.17205479741
0.00000000000 0.98602807522 0.01397189219
0.00000000000 0.99353528023 0.00646477938
0.00000000000 0.92271226645 0.07728771120
0.00000000000 0.99795049429 0.00204952410
1.00000000000 0.00458451873 0.99541544914
1.00000000000 0.00383619755 0.99616384506
0.00000000000 0.99574834108 0.00425170315
0.00000000000 0.98833173513 0.01166829374
0.00000000000 0.00353837875 0.99646168947
0.00000000000 0.97901183367 0.02098815329
0.00000000000 0.98675435781 0.01324559283
1.00000000000 0.95705181360 0.04294813797
1.00000000000 0.00298319454 0.99701678753
0.00000000000 0.99793469906 0.00206537591
0.00000000000 0.99795889854 0.00204107678
0.00000000000 0.99786227942 0.00213776459
0.00000000000 0.99777799845 0.00222197734
0.00000000000 0.98082363605 0.01917639002
0.00000000000 0.99790775776 0.00209223176
0.00000000000 0.99800378084 0.00199617492
0.00000000000 0.99786561728 0.00213438505
0.00000000000 0.99323821068 0.00676173670
0.00000000000 0.99763917923 0.00236084731
0.00000000000 0.99770915508 0.00229087030
1.00000000000 0.10811228305 0.89188772440
0.00000000000 0.99717330933 0.00282664853
0.00000000000 0.99611169100 0.00388833089
0.00000000000 0.00531214243 0.99468791485
0.00000000000 0.99776768684 0.00223229034
0.00000000000 0.00360687962 0.99639314413
0.00000000000 0.96511793137 0.03488214314
1.00000000000 0.18205586076 0.81794416904
1.00000000000 0.00365889352 0.99634104967
0.00000000000 0.87761241198 0.12238764763
1.00000000000 0.99625188112 0.00374820107
1.00000000000 0.99700134993 0.00299864821
0.00000000000 0.99784195423 0.00215798337
0.00000000000 0.95670384169 0.04329611734
0.00000000000 0.99790155888 0.00209843158
0.00000000000 0.99799841642 0.00200157613
1.00000000000 0.01470298506 0.98529702425
1.00000000000 0.46508106589 0.53491896391
0.00000000000 0.99319308996 0.00680694496
0.00000000000 0.99161875248 0.00838124193
1.00000000000 0.02039109729 0.97960883379
0.00000000000 0.98706841469 0.01293152571
1.00000000000 0.95120108128 0.04879893735
0.00000000000 0.94633853436 0.05366146192
1.00000000000 0.00346063171 0.99653935432
0.00000000000 0.99780768156 0.00219232100
0.00000000000 0.84389597178 0.15610398352
0.00000000000 0.00965443347 0.99034553766
0.00000000000 0.99575400352 0.00424599787
0.00000000000 0.18367193639 0.81632810831
0.00000000000 0.02564669214 0.97435331345
1.00000000000 0.15576978028 0.84423017502
0.00000000000 0.99673175812 0.00326820416
0.00000000000 0.95605397224 0.04394596815
0.00000000000 0.99767917395 0.00232087029
0.00000000000 0.99769395590 0.00230600266
1.00000000000 0.00315002096 0.99684995413
0.00000000000 0.99784278870 0.00215714565
0.00000000000 0.99765008688 0.00234997086
0.00000000000 0.99710935354 0.00289071607
0.00000000000 0.00373889273 0.99626106024
0.00000000000 0.99776351452 0.00223647244
0.00000000000 0.98021703959 0.01978294924
0.00000000000 0.99797981977 0.00202025077
0.00000000000 0.99797719717 0.00202281354
0.00000000000 0.96004813910 0.03995181620
0.00000000000 0.98505198956 0.01494799647
0.00000000000 0.99716442823 0.00283555221
0.00000000000 0.13701847196 0.86298149824
0.00000000000 0.99770563841 0.00229437253
0.00000000000 0.99783664942 0.00216341391
1.00000000000 0.00540930824 0.99459075928
0.00000000000 0.99714368582 0.00285628275
0.00000000000 0.01805337518 0.98194664717
0.00000000000 0.99794036150 0.00205958332
0.00000000000 0.99750596285 0.00249404530
0.00000000000 0.99787616730 0.00212378637
0.00000000000 0.98918300867 0.01081700437
1.00000000000 0.00347751845 0.99652254581
0.00000000000 0.99719464779 0.00280536711
1.00000000000 0.00416181656 0.99583816528
0.00000000000 0.95349121094 0.04650879651
0.00000000000 0.99603939056 0.00396060897
0.00000000000 0.00330655137 0.99669349194
0.00000000000 0.00345947896 0.99654048681
0.00000000000 0.02426773869 0.97573220730
0.00000000000 0.99787688255 0.00212311069
0.00000000000 0.99790358543 0.00209640339
0.00000000000 0.99791175127 0.00208824361
1.00000000000 0.00320862792 0.99679130316
0.00000000000 0.97378075123 0.02621920221
1.00000000000 0.00312628830 0.99687373638
0.00000000000 0.99597555399 0.00402440596
0.00000000000 0.99357336760 0.00642658304
0.00000000000 0.99555379152 0.00444624526
1.00000000000 0.00362430909 0.99637573957
0.00000000000 0.91414564848 0.08585437387
0.00000000000 0.79122954607 0.20877037942
1.00000000000 0.98701184988 0.01298814453
0.00000000000 0.99501848221 0.00498146843
0.00000000000 0.99758434296 0.00241568312
0.00000000000 0.99732321501 0.00267685158
1.00000000000 0.97891628742 0.02108369954
0.00000000000 0.99780291319 0.00219708798
0.00000000000 0.99797064066 0.00202940195
0.00000000000 0.99104100466 0.00895901397
0.00000000000 0.99537670612 0.00462325104
0.00000000000 0.81395512819 0.18604488671
0.00000000000 0.99775403738 0.00224591745
0.00000000000 0.99702340364 0.00297663850
0.00000000000 0.22666659951 0.77333337069
0.00000000000 0.99795025587 0.00204981980
0.00000000000 0.99503207207 0.00496793212
0.00000000000 0.00396613544 0.99603384733
0.00000000000 0.99535477161 0.00464524468
0.00000000000 0.97498047352 0.02501949668
0.00000000000 0.99734097719 0.00265896809
0.00000000000 0.94183522463 0.05816473067
0.00000000000 0.99769020081 0.00230978196
1.00000000000 0.00282018329 0.99717986584
0.00000000000 0.00314854831 0.99685150385
0.00000000000 0.99670839310 0.00329158339
0.00000000000 0.98669284582 0.01330721099
0.00000000000 0.99768209457 0.00231788564
0.00000000000 0.99771428108 0.00228568516
1.00000000000 0.93239599466 0.06760406494
0.00000000000 0.99782818556 0.00217183586
0.00000000000 0.97665613890 0.02334382012
0.00000000000 0.99795049429 0.00204948778
0.00000000000 0.99519991875 0.00480002491
1.00000000000 0.00319750956 0.99680244923
0.00000000000 0.99782514572 0.00217485637
0.00000000000 0.99753475189 0.00246521528
1.00000000000 0.87832492590 0.12167509645
0.00000000000 0.97820436954 0.02179562487
0.00000000000 0.99330151081 0.00669847988
0.00000000000 0.99698263407 0.00301737827
0.00000000000 0.94573897123 0.05426101759
0.00000000000 0.99794548750 0.00205447082
0.00000000000 0.99784839153 0.00215159007
0.00000000000 0.99391466379 0.00608528359
0.00000000000 0.99751031399 0.00248968462
0.00000000000 0.00593034690 0.99406969547
0.00000000000 0.98487597704 0.01512409933
0.00000000000 0.99559152126 0.00440851646
0.00000000000 0.99753773212 0.00246227253
0.00000000000 0.99776160717 0.00223841961
1.00000000000 0.00331582152 0.99668413401
0.00000000000 0.99756985903 0.00243018009
0.00000000000 0.99222213030 0.00777790882
0.00000000000 0.99579852819 0.00420141825
0.00000000000 0.99723297358 0.00276702968
0.00000000000 0.19053623080 0.80946373940
0.00000000000 0.99785280228 0.00214724941
0.00000000000 0.99800390005 0.00199614163
0.00000000000 0.89788979292 0.10211026669
0.00000000000 0.99752825499 0.00247178017
0.00000000000 0.99713158607 0.00286838436
0.00000000000 0.04756216332 0.95243787766
0.00000000000 0.99753016233 0.00246990309
0.00000000000 0.99583327770 0.00416668132
0.00000000000 0.99659073353 0.00340931001
1.00000000000 0.00285605039 0.99714392424
1.00000000000 0.00393201271 0.99606800079
0.00000000000 0.01087924931 0.98912072182
0.00000000000 0.99432796240 0.00567206228
1.00000000000 0.00776813738 0.99223184586
0.00000000000 0.99794822931 0.00205174880
0.00000000000 0.99777680635 0.00222324417
1.00000000000 0.31604248285 0.68395757675
1.00000000000 0.00340335956 0.99659663439
0.00000000000 0.68130809069 0.31869190931
0.00000000000 0.99646759033 0.00353236124
0.00000000000 0.99499267340 0.00500733964
0.00000000000 0.99793457985 0.00206539361
0.00000000000 0.99777334929 0.00222663488
0.00000000000 0.99694484472 0.00305520114
0.00000000000 0.99768364429 0.00231639110
0.00000000000 0.99669456482 0.00330541166
0.00000000000 0.99777942896 0.00222054636
0.00000000000 0.99327528477 0.00672470545
0.00000000000 0.45016685128 0.54983311892
0.00000000000 0.00427751942 0.99572241306
0.00000000000 0.61620038748 0.38379958272
0.00000000000 0.06215566397 0.93784433603
0.00000000000 0.99768996239 0.00231004134
1.00000000000 0.00376959657 0.99623042345
0.00000000000 0.99797827005 0.00202172785
0.00000000000 0.99778783321 0.00221217237
1.00000000000 0.93759447336 0.06240548566
0.00000000000 0.00276666135 0.99723333120
0.00000000000 0.98826318979 0.01173683815
0.00000000000 0.99799132347 0.00200873846
0.00000000000 0.99771010876 0.00228982302
0.00000000000 0.99705433846 0.00294568506
0.00000000000 0.99773669243 0.00226329034
0.00000000000 0.99790525436 0.00209475425
0.00000000000 0.99771714211 0.00228286395
0.00000000000 0.99604696035 0.00395308062
0.00000000000 0.97384303808 0.02615693025
0.00000000000 0.35204628110 0.64795368910
0.00000000000 0.97306078672 0.02693925239
0.00000000000 0.99793541431 0.00206455425
1.00000000000 0.01836166903 0.98163831234
0.00000000000 0.99800592661 0.00199407688
0.00000000000 0.91970425844 0.08029571921
0.00000000000 0.96876180172 0.03123827092
0.00000000000 0.99692386389 0.00307612726
0.00000000000 0.96700268984 0.03299737349
0.00000000000 0.00315850438 0.99684154987
0.00000000000 0.96529680490 0.03470312804
0.00000000000 0.99795013666 0.00204993668
1.00000000000 0.00317797717 0.99682199955
1.00000000000 0.90967547894 0.09032446891
0.00000000000 0.98988044262 0.01011959091
0.00000000000 0.93818348646 0.06181657314
0.00000000000 0.99677652121 0.00322353537
1.00000000000 0.54335391521 0.45664608479
0.00000000000 0.98820847273 0.01179157570
0.00000000000 0.99627399445 0.00372605887
0.00000000000 0.99404340982 0.00595658366
0.00000000000 0.99740147591 0.00259860000
0.00000000000 0.00728156650 0.99271845818
0.00000000000 0.99788945913 0.00211060140
0.00000000000 0.99733173847 0.00266827736
0.00000000000 0.99783438444 0.00216561672
0.00000000000 0.99544525146 0.00455476018
0.00000000000 0.99750924110 0.00249072351
0.00000000000 0.99773967266 0.00226027938
0.00000000000 0.99373441935 0.00626563793
0.00000000000 0.00356973405 0.99643033743
0.00000000000 0.99775403738 0.00224592513
0.00000000000 0.99619966745 0.00380026014
0.00000000000 0.98109388351 0.01890606061
0.00000000000 0.01412090007 0.98587912321
1.00000000000 0.00367772067 0.99632227421
0.00000000000 0.88541626930 0.11458374560
0.00000000000 0.00910503417 0.99089503288
0.00000000000 0.99787747860 0.00212249951
0.00000000000 0.97555315495 0.02444678731
0.00000000000 0.98619914055 0.01380079426
1.00000000000 0.00354184187 0.99645811319
1.00000000000 0.04281612858 0.95718383789
0.00000000000 0.17331464589 0.82668536901
0.00000000000 0.99476951361 0.00523050874
0.00000000000 0.99793773890 0.00206220569
0.00000000000 0.99772375822 0.00227628020
1.00000000000 0.46200618148 0.53799384832
0.00000000000 0.99749243259 0.00250759954
1.00000000000 0.68801367283 0.31198635697
0.00000000000 0.01459891628 0.98540109396
0.00000000000 0.99594253302 0.00405747164
0.00000000000 0.09519761056 0.90480232239
0.00000000000 0.97710412741 0.02289582230
1.00000000000 0.54122078419 0.45877924562
0.00000000000 0.00467480393 0.99532520771
0.00000000000 0.99796706438 0.00203292002
0.00000000000 0.96212893724 0.03787105903
0.00000000000 0.89907145500 0.10092861205
0.00000000000 0.99790906906 0.00209101895
0.00000000000 0.12119349092 0.87880653143
0.00000000000 0.97972953320 0.02027050965
0.00000000000 0.99794667959 0.00205327151
1.00000000000 0.77271175385 0.22728827596
0.00000000000 0.94842374325 0.05157626048
0.00000000000 0.99797302485 0.00202692696
0.00000000000 0.99757117033 0.00242887158
0.00000000000 0.99797159433 0.00202833954
0.00000000000 0.24499247968 0.75500756502
1.00000000000 0.99475336075 0.00524657033
0.00000000000 0.99765634537 0.00234368979
0.00000000000 0.00671768049 0.99328231812
0.00000000000 0.71286976337 0.28713023663
0.00000000000 0.98935097456 0.01064906456
1.00000000000 0.02045831829 0.97954171896
1.00000000000 0.99628239870 0.00371761946
1.00000000000 0.00357920420 0.99642086029
0.00000000000 0.99063640833 0.00936356001
1.00000000000 0.99576145411 0.00423858734
0.00000000000 0.98528200388 0.01471805945
0.00000000000 0.98886430264 0.01113567781
0.00000000000 0.99708884954 0.00291117863
0.00000000000 0.99723672867 0.00276327319
0.00000000000 0.06962175667 0.93037819862
0.00000000000 0.98882591724 0.01117404178
0.00000000000 0.99769550562 0.00230443757
0.00000000000 0.02221927792 0.97778075933
1.00000000000 0.10397627950 0.89602369070
0.00000000000 0.99751329422 0.00248665945
0.00000000000 0.99776899815 0.00223104283
1.00000000000 0.99762207270 0.00237790402
0.00000000000 0.99770337343 0.00229660911
0.00000000000 0.99724590778 0.00275415881
0.00000000000 0.99791973829 0.00208023190
1.00000000000 0.00294832350 0.99705171585
0.00000000000 0.98238462210 0.01761538722
1.00000000000 0.00316732447 0.99683266878
1.00000000000 0.00311153522 0.99688845873
0.00000000000 0.07101617754 0.92898386717
0.00000000000 0.99800819159 0.00199178932
1.00000000000 0.00401858706 0.99598145485
1.00000000000 0.99772125483 0.00227874168
1.00000000000 0.96657693386 0.03342309967
0.00000000000 0.99800378084 0.00199625944
0.00000000000 0.01673838496 0.98326164484
0.00000000000 0.99577325583 0.00422670785
0.00000000000 0.99798667431 0.00201330916
0.00000000000 0.97856754065 0.02143243887
1.00000000000 0.28462284803 0.71537721157
0.00000000000 0.99781346321 0.00218648952
1.00000000000 0.00375858531 0.99624145031
0.00000000000 0.97022914886 0.02977087535
1.00000000000 0.04495796561 0.95504206419
0.00000000000 0.99751818180 0.00248181238
0.00000000000 0.91874063015 0.08125941455
0.00000000000 0.98974996805 0.01025002357
0.00000000000 0.94676715136 0.05323280022
0.00000000000 0.99629551172 0.00370449224
0.00000000000 0.99601989985 0.00398009550
0.00000000000 0.99791330099 0.00208672881
0.00000000000 0.02699667960 0.97300332785
0.00000000000 0.00710815378 0.99289190769
0.00000000000 0.99769586325 0.00230414839
1.00000000000 0.00779667636 0.99220335484
0.00000000000 0.99631470442 0.00368534471
0.00000000000 0.99752706289 0.00247290777
0.00000000000 0.99619019032 0.00380980386
0.00000000000 0.99572575092 0.00427430449
0.00000000000 0.99783521891 0.00216475339
0.00000000000 0.99777042866 0.00222957646
0.00000000000 0.99769908190 0.00230086315
0.00000000000 0.99658560753 0.00341434707
0.00000000000 0.99792683125 0.00207316759
0.00000000000 0.99728572369 0.00271429331
0.00000000000 0.99722927809 0.00277075358
0.00000000000 0.99779796600 0.00220210711
0.00000000000 0.98649221659 0.01350782998
0.00000000000 0.99781680107 0.00218321802
1.00000000000 0.99658644199 0.00341359992
0.00000000000 0.99779367447 0.00220634183
0.00000000000 0.99800735712 0.00199269480
0.00000000000 0.99777883291 0.00222122390
0.00000000000 0.91146302223 0.08853693306
0.00000000000 0.99722784758 0.00277217012
0.00000000000 0.99796080589 0.00203921879
0.00000000000 0.83649826050 0.16350170970
0.00000000000 0.99785667658 0.00214325218
0.00000000000 0.63589900732 0.36410096288
0.00000000000 0.99792873859 0.00207124581
0.00000000000 0.98617899418 0.01382104494
0.00000000000 0.00411651004 0.99588340521
0.00000000000 0.97418844700 0.02581152692
0.00000000000 0.99790740013 0.00209264015
0.00000000000 0.68324232101 0.31675764918
0.00000000000 0.21664789319 0.78335207701
1.00000000000 0.00369206350 0.99630796909
0.00000000000 0.99374783039 0.00625218730
0.00000000000 0.99670559168 0.00329447119
0.00000000000 0.99784719944 0.00215275632
1.00000000000 0.00756122638 0.99243879318
0.00000000000 0.45997962356 0.54002040625
0.00000000000 0.32360956073 0.67639040947
0.00000000000 0.99648499489 0.00351494690
0.00000000000 0.99119788408 0.00880214386
0.00000000000 0.73139375448 0.26860624552
0.00000000000 0.99478155375 0.00521840015
0.00000000000 0.99784922600 0.00215077004
0.00000000000 0.99678975344 0.00321019930
1.00000000000 0.68752551079 0.31247448921
0.00000000000 0.98641204834 0.01358790603
0.00000000000 0.97142338753 0.02857665159
0.00000000000 0.98973160982 0.01026839856
0.00000000000 0.09254779667 0.90745222569
0.00000000000 0.99655967951 0.00344034936
0.00000000000 0.01361953467 0.98638051748
0.00000000000 0.99764037132 0.00235960563
0.00000000000 0.99650663137 0.00349338306
0.00000000000 0.00326100318 0.99673897028
0.00000000000 0.99417346716 0.00582658267
0.00000000000 0.99777215719 0.00222785445
0.00000000000 0.00798419863 0.99201583862
0.00000000000 0.99792516232 0.00207477505
0.00000000000 0.00654895185 0.99345099926
0.00000000000 0.99792128801 0.00207873783
0.00000000000 0.99797755480 0.00202246406
0.00000000000 0.99705207348 0.00294788298
0.00000000000 0.98336017132 0.01663986593
0.00000000000 0.99673068523 0.00326929125
0.00000000000 0.97970217466 0.02029774711
0.00000000000 0.99613130093 0.00386869232
0.00000000000 0.97643572092 0.02356426418
0.00000000000 0.99722975492 0.00277020270
0.00000000000 0.99748319387 0.00251689157
0.00000000000 0.01811336540 0.98188662529
0.00000000000 0.99619764090 0.00380228064
0.00000000000 0.99770122766 0.00229878887
0.00000000000 0.99679416418 0.00320583698
0.00000000000 0.99795532227 0.00204467075
0.00000000000 0.98998391628 0.01001602784
0.00000000000 0.99690347910 0.00309654558
1.00000000000 0.00444994261 0.99555003643
0.00000000000 0.99794036150 0.00205962546
0.00000000000 0.99407058954 0.00592935132
0.00000000000 0.99770867825 0.00229130522
0.00000000000 0.99713790417 0.00286214659
1.00000000000 0.00300618727 0.99699378014
0.00000000000 0.98837202787 0.01162802242
0.00000000000 0.99371218681 0.00628784020
0.00000000000 0.99673479795 0.00326515315
0.00000000000 0.99429482222 0.00570514705
1.00000000000 0.00295123877 0.99704879522
0.00000000000 0.99186861515 0.00813133549
0.00000000000 0.83141124249 0.16858872771
0.00000000000 0.99786925316 0.00213071704
0.00000000000 0.99777621031 0.00222381973
0.00000000000 0.99699747562 0.00300252647
0.00000000000 0.99283558130 0.00716442708
0.00000000000 0.34470829368 0.65529167652
0.00000000000 0.96378087997 0.03621910512
0.00000000000 0.99625200033 0.00374800852
0.00000000000 0.99735766649 0.00264234142
0.00000000000 0.99757558107 0.00242439634
0.00000000000 0.99794906378 0.00205089967
0.00000000000 0.99759238958 0.00240764022
0.00000000000 0.99784541130 0.00215453515
0.00000000000 0.99797230959 0.00202771928
0.00000000000 0.89630395174 0.10369605571
0.00000000000 0.34298396111 0.65701609850
0.00000000000 0.99800044298 0.00199959497
0.00000000000 0.93976306915 0.06023696065
0.00000000000 0.99715155363 0.00284841773
0.00000000000 0.99714666605 0.00285327993
1.00000000000 0.00308480510 0.99691522121
0.00000000000 0.98756349087 0.01243659295
0.00000000000 0.99749350548 0.00250646682
0.00000000000 0.99791902304 0.00208093366
0.00000000000 0.99796652794 0.00203353143
1.00000000000 0.00306162168 0.99693834782
0.00000000000 0.89014548063 0.10985454172
0.00000000000 0.45973330736 0.54026663303
0.00000000000 0.77262461185 0.22737538815
0.00000000000 0.62103831768 0.37896171212
0.00000000000 0.99789786339 0.00210211216
0.00000000000 0.00912718009 0.99087280035
0.00000000000 0.99636673927 0.00363326329
0.00000000000 0.92053955793 0.07946041971
0.00000000000 0.16635291278 0.83364707232
0.00000000000 0.99510598183 0.00489406707
0.00000000000 0.99141263962 0.00858734455
0.00000000000 0.99750357866 0.00249642134
0.00000000000 0.99797290564 0.00202713558
0.00000000000 0.99208223820 0.00791776087
0.00000000000 0.99644130468 0.00355871255
1.00000000000 0.98456811905 0.01543193404
1.00000000000 0.06725664437 0.93274337053
0.00000000000 0.98857003450 0.01142998692
1.00000000000 0.03435564414 0.96564441919
0.00000000000 0.99631375074 0.00368622155
0.00000000000 0.99760323763 0.00239673071
0.00000000000 0.74119049311 0.25880950689
0.00000000000 0.99770665169 0.00229328033
0.00000000000 0.24772825837 0.75227177143
0.00000000000 0.97076606750 0.02923389897
0.00000000000 0.99787378311 0.00212626788
0.00000000000 0.98857444525 0.01142553240
0.00000000000 0.99127590656 0.00872409716
0.00000000000 0.01946143061 0.98053848743
0.00000000000 0.99747437239 0.00252558198
0.00000000000 0.97343540192 0.02656460926
0.00000000000 0.99536150694 0.00463850936
0.00000000000 0.01502326224 0.98497676849
1.00000000000 0.99749457836 0.00250540720
0.00000000000 0.17704226077 0.82295769453
0.00000000000 0.98768323660 0.01231672801
0.00000000000 0.05043064803 0.94956940413
0.00000000000 0.99775689840 0.00224316376
0.00000000000 0.99798488617 0.00201506307
0.00000000000 0.99441248178 0.00558758248
0.00000000000 0.45596978068 0.54403024912
0.00000000000 0.99537509680 0.00462495675
0.00000000000 0.05255374312 0.94744628668
0.00000000000 0.99553078413 0.00446922472
0.00000000000 0.99783045053 0.00216954411
0.00000000000 0.99235630035 0.00764376158
0.00000000000 0.97931194305 0.02068804391
0.00000000000 0.00449899910 0.99550098181
0.00000000000 0.78511571884 0.21488429606
0.00000000000 0.99654787779 0.00345215993
0.00000000000 0.39446288347 0.60553711653
0.00000000000 0.99751853943 0.00248147268
0.00000000000 0.99778902531 0.00221096980
0.00000000000 0.99581098557 0.00418900326
0.00000000000 0.99795842171 0.00204153429
0.00000000000 0.00295647862 0.99704355001
1.00000000000 0.00280232565 0.99719762802
0.00000000000 0.98786795139 0.01213206816
0.00000000000 0.99698191881 0.00301806116
0.00000000000 0.99714273214 0.00285727438
0.00000000000 0.01753879152 0.98246115446
0.00000000000 0.99658691883 0.00341312448
1.00000000000 0.57447141409 0.42552858591
1.00000000000 0.00285412394 0.99714583158
0.00000000000 0.99782395363 0.00217607687
0.00000000000 0.00324543752 0.99675458670
0.00000000000 0.99799609184 0.00200397312
0.00000000000 0.77092057467 0.22907941043
0.00000000000 0.98647433519 0.01352566388
0.00000000000 0.99782276154 0.00217727711
0.00000000000 0.99772316217 0.00227688230
0.00000000000 0.50251156092 0.49748846889
0.00000000000 0.99792385101 0.00207612524
0.00000000000 0.99711298943 0.00288703619
0.00000000000 0.99703824520 0.00296179787
0.00000000000 0.00353099708 0.99646902084
0.00000000000 0.99785691500 0.00214308407
0.00000000000 0.98479235172 0.01520764641
0.00000000000 0.00393262133 0.99606740475
0.00000000000 0.83248651028 0.16751350462
0.00000000000 0.99513715506 0.00486292271
0.00000000000 0.99770289660 0.00229708222
0.00000000000 0.79177230597 0.20822769403
0.00000000000 0.99786502123 0.00213505863
0.00000000000 0.99759882689 0.00240119617
0.00000000000 0.64014232159 0.35985767841
1.00000000000 0.09313526750 0.90686476231
0.00000000000 0.96385949850 0.03614056110
0.00000000000 0.99567586184 0.00432411116
1.00000000000 0.43818038702 0.56181961298
0.00000000000 0.99786370993 0.00213630451
1.00000000000 0.22166083753 0.77833914757
0.00000000000 0.99570149183 0.00429847557
0.00000000000 0.99800294638 0.00199706922
0.00000000000 0.99793767929 0.00206240709
0.00000000000 0.99472552538 0.00527448440
0.00000000000 0.99496918917 0.00503084809
0.00000000000 0.99683493376 0.00316514121
0.00000000000 0.99795746803 0.00204255595
0.00000000000 0.99738019705 0.00261980202
0.00000000000 0.99672603607 0.00327389059
0.00000000000 0.99770313501 0.00229685265
0.00000000000 0.98899006844 0.01100996695
0.00000000000 0.61241739988 0.38758260012
0.00000000000 0.76142376661 0.23857623339
0.00000000000 0.99755424261 0.00244580209
0.00000000000 0.99504834414 0.00495164469
0.00000000000 0.99786311388 0.00213691453
0.00000000000 0.99793004990 0.00207000249
0.00000000000 0.81691581011 0.18308418989
0.00000000000 0.86146575212 0.13853427768
0.00000000000 0.00306539377 0.99693465233
0.00000000000 0.11430706084 0.88569295406
0.00000000000 0.99366235733 0.00633759657
1.00000000000 0.00538915582 0.99461090565
1.00000000000 0.97736519575 0.02263480984
0.00000000000 0.99749112129 0.00250886311
0.00000000000 0.99781739712 0.00218255026
0.00000000000 0.98516350985 0.01483647060
0.00000000000 0.99348527193 0.00651474483
0.00000000000 0.99781501293 0.00218498474
0.00000000000 0.00599926338 0.99400073290
1.00000000000 0.00283992128 0.99716007710
1.00000000000 0.00382244750 0.99617755413
0.00000000000 0.99764662981 0.00235335715
1.00000000000 0.99585574865 0.00414421409
0.00000000000 0.99789458513 0.00210549287
0.00000000000 0.99770277739 0.00229722634
1.00000000000 0.15529030561 0.84470975399
0.00000000000 0.90582853556 0.09417152405
1.00000000000 0.70029884577 0.29970115423
0.00000000000 0.00500391284 0.99499607086
0.00000000000 0.99740040302 0.00259955996
0.00000000000 0.99786192179 0.00213803002
0.00000000000 0.99675804377 0.00324195623
0.00000000000 0.99413162470 0.00586841395
0.00000000000 0.56572854519 0.43427142501
0.00000000000 0.99278473854 0.00721526053
0.00000000000 0.99662148952 0.00337853213
0.00000000000 0.95314347744 0.04685658216
0.00000000000 0.00522666192 0.99477332830
0.00000000000 0.99765861034 0.00234140293
0.00000000000 0.99694186449 0.00305815972
0.00000000000 0.98352241516 0.01647759974
0.00000000000 0.99776256084 0.00223746756
0.00000000000 0.99763047695 0.00236946368
1.00000000000 0.05333349481 0.94666653872
0.00000000000 0.99575233459 0.00424770033
0.00000000000 0.99615806341 0.00384200178
0.00000000000 0.99580740929 0.00419258513
0.00000000000 0.99144530296 0.00855471939
0.00000000000 0.99597138166 0.00402854430
0.00000000000 0.99489516020 0.00510478253
0.00000000000 0.99795085192 0.00204918580
0.00000000000 0.99315518141 0.00684482092
0.00000000000 0.98936647177 0.01063346025
1.00000000000 0.00401797425 0.99598205090
0.00000000000 0.99173533916 0.00826463383
0.00000000000 0.60259437561 0.39740556479
0.00000000000 0.94093579054 0.05906422064
0.00000000000 0.99793303013 0.00206701295
0.00000000000 0.99674582481 0.00325410231
1.00000000000 0.97971457243 0.02028540708
0.00000000000 0.99765646458 0.00234352471
1.00000000000 0.13106290996 0.86893707514
0.00000000000 0.99775189161 0.00224809116
0.00000000000 0.99786478281 0.00213523931
0.00000000000 0.16616511345 0.83383494616
1.00000000000 0.98878186941 0.01121814176
0.00000000000 0.99621468782 0.00378534081
0.00000000000 0.99522793293 0.00477211224
1.00000000000 0.00309666037 0.99690335989
0.00000000000 0.99781572819 0.00218422478
0.00000000000 0.99722099304 0.00277907029
0.00000000000 0.99756902456 0.00243092305
1.00000000000 0.20868757367 0.79131239653
0.00000000000 0.01466911286 0.98533093929
0.00000000000 0.94109529257 0.05890467763
0.00000000000 0.99680352211 0.00319653586
0.00000000000 0.99414306879 0.00585693074
0.00000000000 0.04098573327 0.95901423693
1.00000000000 0.65821975470 0.34178021550
0.00000000000 0.99785906076 0.00214094250
0.00000000000 0.99749940634 0.00250054244
1.00000000000 0.03817559406 0.96182435751
0.00000000000 0.98532998562 0.01467005070
0.00000000000 0.99679273367 0.00320730940
0.00000000000 0.99797314405 0.00202681404
0.00000000000 0.99688845873 0.00311154430
0.00000000000 0.99785137177 0.00214869576
0.00000000000 0.12542840838 0.87457156181
0.00000000000 0.00815173239 0.99184823036
0.00000000000 0.99768686295 0.00231311820
0.00000000000 0.99791866541 0.00208130525
0.00000000000 0.99794954062 0.00205049664
0.00000000000 0.96364414692 0.03635586798
0.00000000000 0.99756854773 0.00243148394
0.00000000000 0.99678611755 0.00321393530
1.00000000000 0.00365381804 0.99634617567
1.00000000000 0.16956162453 0.83043843508
0.00000000000 0.98348641396 0.01651356556
0.00000000000 0.99798762798 0.00201240787
0.00000000000 0.99450290203 0.00549706863
1.00000000000 0.99692529440 0.00307474006
0.00000000000 0.99740380049 0.00259621814
0.00000000000 0.99041169882 0.00958823226
0.00000000000 0.42968696356 0.57031303644
0.00000000000 0.00389024848 0.99610978365
0.00000000000 0.00358091667 0.99641907215
0.00000000000 0.99778383970 0.00221622945
1.00000000000 0.00645355182 0.99354642630
0.00000000000 0.99789798260 0.00210196082
0.00000000000 0.99782526493 0.00217475393
0.00000000000 0.94920146465 0.05079853907
0.00000000000 0.99453979731 0.00546020921
0.00000000000 0.99800473452 0.00199521589
0.00000000000 0.00296327914 0.99703669548
0.00000000000 0.99776566029 0.00223437836
0.00000000000 0.97928875685 0.02071121149
0.00000000000 0.98242443800 0.01757550798
0.00000000000 0.13383227587 0.86616766453
0.00000000000 0.99634093046 0.00365901552
1.00000000000 0.57448989153 0.42551007867
0.00000000000 0.00344804325 0.99655199051
0.00000000000 0.02396203391 0.97603797913
0.00000000000 0.99598181248 0.00401820708
0.00000000000 0.97948098183 0.02051907033
0.00000000000 0.99782323837 0.00217681308
0.00000000000 0.99660706520 0.00339289359
1.00000000000 0.00330708385 0.99669289589
0.00000000000 0.59943825006 0.40056174994
0.00000000000 0.99657803774 0.00342189870
0.00000000000 0.99423319101 0.00576681271
0.00000000000 0.99101287127 0.00898712780
0.00000000000 0.97710585594 0.02289411053
0.00000000000 0.99375617504 0.00624384778
0.00000000000 0.99450993538 0.00549006835
0.00000000000 0.99796092510 0.00203913334
0.00000000000 0.64943665266 0.35056331754
1.00000000000 0.00319080381 0.99680918455
0.00000000000 0.99590826035 0.00409169402
0.00000000000 0.99546521902 0.00453477073
1.00000000000 0.00294499449 0.99705505371
0.00000000000 0.99641966820 0.00358034833
0.00000000000 0.99776899815 0.00223096740
0.00000000000 0.99649435282 0.00350565976
1.00000000000 0.28605079651 0.71394920349
0.00000000000 0.96285414696 0.03714587539
0.00000000000 0.99792504311 0.00207494898
0.00000000000 0.99708384275 0.00291614491
0.00000000000 0.99782264233 0.00217738887
0.00000000000 0.99795544147 0.00204454735
0.00000000000 0.99682778120 0.00317221996
0.00000000000 0.99451905489 0.00548091996
0.00000000000 0.99770182371 0.00229815883
0.00000000000 0.93417578936 0.06582425535
0.00000000000 0.01955897175 0.98044097424
1.00000000000 0.99616748095 0.00383246876
0.00000000000 0.00603714678 0.99396282434
0.00000000000 0.99613851309 0.00386152184
0.00000000000 0.99745005369 0.00254998356
0.00000000000 0.97203254700 0.02796744928
0.00000000000 0.00449512899 0.99550491571
0.00000000000 0.99193382263 0.00806620345
0.00000000000 0.98718261719 0.01281733345
1.00000000000 0.01145713124 0.98854291439
0.00000000000 0.00530683389 0.99469321966
1.00000000000 0.00356719550 0.99643278122
0.00000000000 0.00371497101 0.99628496170
0.00000000000 0.98303288221 0.01696711779
0.00000000000 0.98191410303 0.01808586903
0.00000000000 0.99701094627 0.00298902369
0.00000000000 0.99780958891 0.00219042762
0.00000000000 0.99787676334 0.00212324178
0.00000000000 0.00373874186 0.99626117945
0.00000000000 0.99790573120 0.00209427392
1.00000000000 0.00337013253 0.99662989378
0.00000000000 0.22917531431 0.77082467079
0.00000000000 0.97475218773 0.02524784021
1.00000000000 0.03563699126 0.96436297894
0.00000000000 0.99697685242 0.00302318484
1.00000000000 0.00336560770 0.99663442373
1.00000000000 0.00361115974 0.99638891220
1.00000000000 0.13289913535 0.86710089445
1.00000000000 0.99160599709 0.00839394424
0.00000000000 0.01255158521 0.98744839430
0.00000000000 0.58928954601 0.41071045399
0.00000000000 0.99688893557 0.00311111961
0.00000000000 0.99797767401 0.00202236394
0.00000000000 0.99599981308 0.00400025351
0.00000000000 0.99021762609 0.00978238322
0.00000000000 0.34452980757 0.65547019243
0.00000000000 0.99699378014 0.00300621009
0.00000000000 0.99272114038 0.00727888895
0.00000000000 0.99783533812 0.00216462975
0.00000000000 0.99787664413 0.00212332653
0.00000000000 0.93837803602 0.06162190810
1.00000000000 0.00391212106 0.99608790874
0.00000000000 0.01656321064 0.98343682289
0.00000000000 0.99784982204 0.00215020846
1.00000000000 0.97207379341 0.02792623080
0.00000000000 0.32060879469 0.67939120531
1.00000000000 0.00360647682 0.99639350176
0.00000000000 0.99786275625 0.00213721744
0.00000000000 0.99794405699 0.00205599866
0.00000000000 0.91019624472 0.08980371803
0.00000000000 0.99764865637 0.00235133385
0.00000000000 0.99785512686 0.00214479864
0.00000000000 0.98660010099 0.01339993346
0.00000000000 0.88191395998 0.11808597296
0.00000000000 0.98854440451 0.01145562995
0.00000000000 0.99601835012 0.00398170669
1.00000000000 0.99420243502 0.00579759059
0.00000000000 0.95456343889 0.04543659836
0.00000000000 0.99415969849 0.00584027870
1.00000000000 0.99133133888 0.00866870116
0.00000000000 0.99660974741 0.00339017133
0.00000000000 0.80112916231 0.19887083769
0.00000000000 0.99788397551 0.00211599562
0.00000000000 0.99688041210 0.00311962888
1.00000000000 0.00353012979 0.99646985531
0.00000000000 0.99744796753 0.00255202642
0.00000000000 0.99758946896 0.00241059577
0.00000000000 0.99777811766 0.00222192029
0.00000000000 0.99789631367 0.00210363395
0.00000000000 0.99798965454 0.00201031612
0.00000000000 0.99769955873 0.00230040005
1.00000000000 0.02955648862 0.97044354677
0.00000000000 0.99650585651 0.00349422335
0.00000000000 0.99776923656 0.00223080418
0.00000000000 0.99774026871 0.00225975155
0.00000000000 0.99764096737 0.00235903542
0.00000000000 0.99448519945 0.00551482849
0.00000000000 0.99409192801 0.00590808550
0.00000000000 0.99666070938 0.00333927525
1.00000000000 0.01103436481 0.98896563053
1.00000000000 0.00532638887 0.99467366934
0.00000000000 0.98916316032 0.01083682384
0.00000000000 0.99790871143 0.00209136121
0.00000000000 0.62521392107 0.37478610873
0.00000000000 0.99125295877 0.00874709990
0.00000000000 0.82027751207 0.17972253263
0.00000000000 0.95494562387 0.04505435005
0.00000000000 0.99792623520 0.00207376550
0.00000000000 0.17443759739 0.82556241751
0.00000000000 0.99650454521 0.00349541847
0.00000000000 0.99780911207 0.00219095824
0.00000000000 0.99755150080 0.00244848616
1.00000000000 0.73380923271 0.26619073749
0.00000000000 0.99723583460 0.00276417471
0.00000000000 0.99695909023 0.00304097799
0.00000000000 0.58612149954 0.41387853026
0.00000000000 0.98793357611 0.01206644904
1.00000000000 0.00426866766 0.99573129416
1.00000000000 0.99747735262 0.00252266345
0.00000000000 0.99666541815 0.00333459722
0.00000000000 0.38796174526 0.61203819513
0.00000000000 0.65924626589 0.34075370431
1.00000000000 0.82582533360 0.17417465150
0.00000000000 0.99771702290 0.00228303461
0.00000000000 0.99791067839 0.00208927016
1.00000000000 0.03245996684 0.96754002571
1.00000000000 0.49030014873 0.50969988108
0.00000000000 0.01012048405 0.98987948895
0.00000000000 0.99725264311 0.00274730823
0.00000000000 0.99671423435 0.00328581152
0.00000000000 0.80585443974 0.19414550066
0.00000000000 0.99653351307 0.00346647436
0.00000000000 0.99790036678 0.00209957315
0.00000000000 0.99212670326 0.00787322689
1.00000000000 0.00337610021 0.99662387371
0.00000000000 0.99452376366 0.00547619117
1.00000000000 0.00406702142 0.99593299627
0.00000000000 0.99579524994 0.00420472678
0.00000000000 0.08050537854 0.91949456930
0.00000000000 0.06924480200 0.93075519800
1.00000000000 0.44567987323 0.55432015657
0.00000000000 0.99781584740 0.00218415423
0.00000000000 0.99787330627 0.00212668465
0.00000000000 0.99787747860 0.00212252652
1.00000000000 0.00810924917 0.99189078808
1.00000000000 0.00287087308 0.99712914228
1.00000000000 0.99713802338 0.00286195031
0.00000000000 0.99202203751 0.00797793455
1.00000000000 0.00279446179 0.99720555544
0.00000000000 0.99744886160 0.00255105179
0.00000000000 0.99783188105 0.00216817157
0.00000000000 0.99735438824 0.00264562177
0.00000000000 0.99795448780 0.00204550009
0.00000000000 0.99471753836 0.00528247608
0.00000000000 0.99795365334 0.00204633060
0.00000000000 0.93577897549 0.06422105432
0.00000000000 0.59496587515 0.40503418446
0.00000000000 0.00334372977 0.99665629864
0.00000000000 0.99795758724 0.00204237970
0.00000000000 0.15011832118 0.84988170862
1.00000000000 0.00292994943 0.99707007408
0.00000000000 0.99792897701 0.00207101507
1.00000000000 0.98380500078 0.01619497687
0.00000000000 0.99563711882 0.00436292915
0.00000000000 0.02301062644 0.97698944807
0.00000000000 0.03140455484 0.96859544516
0.00000000000 0.00427373359 0.99572622776
0.00000000000 0.99768388271 0.00231609563
0.00000000000 0.99178338051 0.00821656454
0.00000000000 0.08401871473 0.91598129272
0.00000000000 0.99616181850 0.00383818010
0.00000000000 0.99799132347 0.00200866279
0.00000000000 0.00604728702 0.99395269156
0.00000000000 0.46204590797 0.53795403242
0.00000000000 0.95197343826 0.04802662507
0.00000000000 0.99767166376 0.00232830597
0.00000000000 0.99785268307 0.00214737025
0.00000000000 0.99795603752 0.00204397156
0.00000000000 0.62482994795 0.37517002225
0.00000000000 0.99721956253 0.00278047286
0.00000000000 0.95187520981 0.04812473059
1.00000000000 0.00371794822 0.99628204107
0.00000000000 0.99761992693 0.00238002138
0.00000000000 0.98828446865 0.01171557419
0.00000000000 0.99538934231 0.00461069262
0.00000000000 0.26289358735 0.73710644245
0.00000000000 0.99783307314 0.00216695387
0.00000000000 0.99743914604 0.00256089284
0.00000000000 0.99783772230 0.00216227444
0.00000000000 0.99795949459 0.00204051961
0.00000000000 0.99765694141 0.00234304555
0.00000000000 0.99751663208 0.00248333463
0.00000000000 0.99655115604 0.00344882300
1.00000000000 0.99650132656 0.00349866878
0.00000000000 0.99793964624 0.00206031650
0.00000000000 0.99557399750 0.00442603743
1.00000000000 0.00441492302 0.99558508396
1.00000000000 0.00635256013 0.99364739656
0.00000000000 0.99753165245 0.00246836338
0.00000000000 0.01150444057 0.98849558830
0.00000000000 0.18947780132 0.81052219868
0.00000000000 0.99534815550 0.00465191435
0.00000000000 0.99799382687 0.00200617826
0.00000000000 0.99796742201 0.00203252234
0.00000000000 0.99703049660 0.00296946638
0.00000000000 0.99593311548 0.00406687008
0.00000000000 0.00411193585 0.99588805437
0.00000000000 0.98957729340 0.01042272430
0.00000000000 0.99669599533 0.00330402516
0.00000000000 0.99795389175 0.00204612804
1.00000000000 0.25589770079 0.74410229921
0.00000000000 0.98091149330 0.01908849552
1.00000000000 0.00363243488 0.99636757374
0.00000000000 0.99477177858 0.00522816647
0.00000000000 0.99789482355 0.00210518017
0.00000000000 0.99763464928 0.00236533815
0.00000000000 0.27980685234 0.72019314766
0.00000000000 0.99795204401 0.00204793969
0.00000000000 0.06256385148 0.93743616343
0.00000000000 0.99797266722 0.00202734582
0.00000000000 0.99800437689 0.00199560216
0.00000000000 0.99782502651 0.00217494741
0.00000000000 0.71378910542 0.28621095419
0.00000000000 0.99400985241 0.00599020533
0.00000000000 0.90483748913 0.09516252577
0.00000000000 0.82506275177 0.17493718863
0.00000000000 0.99638366699 0.00361633603
0.00000000000 0.06568845361 0.93431156874
0.00000000000 0.99142187834 0.00857811421
0.00000000000 0.99588531256 0.00411467487
0.00000000000 0.18211430311 0.81788569689
0.00000000000 0.99781113863 0.00218884903
0.00000000000 0.99797517061 0.00202487386
0.00000000000 0.99491041899 0.00508955354
0.00000000000 0.99510729313 0.00489271758
0.00000000000 0.00551157631 0.99448835850
1.00000000000 0.91976207495 0.08023791015
0.00000000000 0.59907907248 0.40092089772
0.00000000000 0.60224312544 0.39775690436
0.00000000000 0.23320268095 0.76679736376
0.00000000000 0.99736231565 0.00263773859
0.00000000000 0.99770194292 0.00229804195
0.00000000000 0.96328383684 0.03671611845
0.00000000000 0.99795472622 0.00204521464
1.00000000000 0.99680519104 0.00319487695
0.00000000000 0.99165326357 0.00834681094
0.00000000000 0.01123839617 0.98876160383
0.00000000000 0.99778407812 0.00221600314
0.00000000000 0.99677711725 0.00322293933
0.00000000000 0.99504435062 0.00495560979
0.00000000000 0.99715590477 0.00284408196
0.00000000000 0.99785333872 0.00214661704
0.00000000000 0.99569559097 0.00430435920
0.00000000000 0.00463203480 0.99536800385
0.00000000000 0.99720543623 0.00279454002
0.00000000000 0.99798905849 0.00201094314
1.00000000000 0.00308179134 0.99691820145
0.00000000000 0.99777102470 0.00222901325
0.00000000000 0.62736117840 0.37263888121
0.00000000000 0.99389302731 0.00610694056
0.00000000000 0.02288245037 0.97711753845
0.00000000000 0.96400958300 0.03599043563
1.00000000000 0.62893819809 0.37106174231
0.00000000000 0.93423861265 0.06576142460
0.00000000000 0.03865962476 0.96134036779
0.00000000000 0.99767655134 0.00232343655
0.00000000000 0.99640071392 0.00359926536
1.00000000000 0.99792271852 0.00207733875
0.00000000000 0.99575871229 0.00424123649
0.00000000000 0.99786877632 0.00213124231
0.00000000000 0.99775809050 0.00224196259
1.00000000000 0.00326892780 0.99673104286
0.00000000000 0.01379403472 0.98620599508
0.00000000000 0.98768228292 0.01231766120
0.00000000000 0.92417287827 0.07582709193
0.00000000000 0.99774891138 0.00225107837
0.00000000000 0.97385460138 0.02614547871
0.00000000000 0.99779558182 0.00220438279
0.00000000000 0.96505010128 0.03494993970
0.00000000000 0.99796175957 0.00203829724
0.00000000000 0.99760460854 0.00239533908
0.00000000000 0.99728727341 0.00271272683
0.00000000000 0.99690371752 0.00309631275
0.00000000000 0.00840988662 0.99159008265
0.00000000000 0.97910052538 0.02089946903
0.00000000000 0.88131135702 0.11868867278
0.00000000000 0.76727157831 0.23272837698
0.00000000000 0.99094450474 0.00905544776
1.00000000000 0.10935392231 0.89064610004
0.00000000000 0.99782228470 0.00217776513
0.00000000000 0.99798882008 0.00201119273
1.00000000000 0.96809756756 0.03190246224
0.00000000000 0.00367134716 0.99632865191
0.00000000000 0.99781644344 0.00218352349
0.00000000000 0.99668025970 0.00331975380
0.00000000000 0.99226534367 0.00773470011
0.00000000000 0.98770058155 0.01229939517
1.00000000000 0.99683856964 0.00316141360
1.00000000000 0.00465435255 0.99534565210
0.00000000000 0.99727779627 0.00272222632
1.00000000000 0.99687373638 0.00312620192
0.00000000000 0.99787306786 0.00212689303
0.00000000000 0.99800139666 0.00199864339
0.00000000000 0.99710589647 0.00289412658
0.00000000000 0.42385020852 0.57614976168
1.00000000000 0.00390525186 0.99609476328
1.00000000000 0.00325084850 0.99674916267
0.00000000000 0.99794739485 0.00205264939
1.00000000000 0.00428566942 0.99571424723
0.00000000000 0.00454548420 0.99545454979
0.00000000000 0.99755835533 0.00244165212
0.00000000000 0.99776875973 0.00223124796
0.00000000000 0.00975249801 0.99024742842
0.00000000000 0.05650690943 0.94349306822
0.00000000000 0.00343056372 0.99656939507
0.00000000000 0.99777114391 0.00222892524
0.00000000000 0.97584402561 0.02415595390
0.00000000000 0.99656808376 0.00343192066
0.00000000000 0.17992874980 0.82007122040
0.00000000000 0.99435585737 0.00564410258
0.00000000000 0.99739134312 0.00260857865
1.00000000000 0.00349229923 0.99650770426
0.00000000000 0.06670384854 0.93329620361
0.00000000000 0.96570134163 0.03429863602
0.00000000000 0.13904134929 0.86095869541
0.00000000000 0.00501049310 0.99498945475
0.00000000000 0.99797672033 0.00202323520
0.00000000000 0.99360066652 0.00639928970
0.00000000000 0.99536150694 0.00463848934
0.00000000000 0.99448639154 0.00551359169
0.00000000000 0.99772459269 0.00227540499
0.00000000000 0.99771368504 0.00228631706
0.00000000000 0.98558342457 0.01441655029
0.00000000000 0.97105836868 0.02894164622
0.00000000000 0.99731475115 0.00268525374
0.00000000000 0.99787652493 0.00212353701
0.00000000000 0.99638283253 0.00361709879
0.00000000000 0.99759370089 0.00240633148
0.00000000000 0.92658013105 0.07341986150
0.00000000000 0.81389772892 0.18610224128
1.00000000000 0.00278219325 0.99721777439
0.00000000000 0.96977406740 0.03022589348
0.00000000000 0.00409180857 0.99590814114
0.00000000000 0.99262660742 0.00737337023
0.00000000000 0.99787366390 0.00212633261
0.00000000000 0.41673353314 0.58326643705
0.00000000000 0.99799489975 0.00200517429
0.00000000000 0.99704879522 0.00295125297
0.00000000000 0.99154037237 0.00845962297
0.00000000000 0.99796873331 0.00203121500
0.00000000000 0.99773764610 0.00226239907
0.00000000000 0.00853025168 0.99146968126
0.00000000000 0.94909977913 0.05090026185
0.00000000000 0.99776601791 0.00223394367
0.00000000000 0.60261005163 0.39738997817
1.00000000000 0.00285196188 0.99714809656
0.00000000000 0.99732410908 0.00267580757
0.00000000000 0.35443538427 0.64556455612
0.00000000000 0.98536831141 0.01463165134
0.00000000000 0.99772781134 0.00227216841
0.00000000000 0.99739032984 0.00260965945
0.00000000000 0.99785476923 0.00214521121
0.00000000000 0.97659158707 0.02340849862
0.00000000000 0.99157214165 0.00842788815
0.00000000000 0.99784207344 0.00215791794
0.00000000000 0.99737906456 0.00262095104
0.00000000000 0.00342568196 0.99657440186
1.00000000000 0.98475152254 0.01524846349
0.00000000000 0.93518263102 0.06481738389
0.00000000000 0.99448436499 0.00551558379
0.00000000000 0.99786949158 0.00213054474
0.00000000000 0.82906687260 0.17093317211
0.00000000000 0.96304386854 0.03695617989
1.00000000000 0.99714869261 0.00285134488
0.00000000000 0.99646216631 0.00353780668
1.00000000000 0.99264341593 0.00735657057
0.00000000000 0.59123951197 0.40876051784
0.00000000000 0.99790525436 0.00209473819
1.00000000000 0.64027351141 0.35972648859
0.00000000000 0.20575000346 0.79425001144
0.00000000000 0.99579560757 0.00420439942
0.00000000000 0.99471741915 0.00528265955
0.00000000000 0.00315494533 0.99684512615
0.00000000000 0.01121376269 0.98878622055
0.00000000000 0.99785834551 0.00214163144
1.00000000000 0.93586772680 0.06413226575
0.00000000000 0.80589497089 0.19410502911
0.00000000000 0.96411472559 0.03588526323
0.00000000000 0.99578106403 0.00421895459
0.00000000000 0.99572914839 0.00427087955
0.00000000000 0.99761414528 0.00238582632
0.00000000000 0.98951959610 0.01048033871
1.00000000000 0.12778687477 0.87221306562
0.00000000000 0.99774420261 0.00225587375
0.00000000000 0.99754589796 0.00245404895
0.00000000000 0.37227553129 0.62772446871
0.00000000000 0.37649008632 0.62350994349
0.00000000000 0.08455972373 0.91544032097
0.00000000000 0.99800938368 0.00199066708
0.00000000000 0.00749767153 0.99250233173
0.00000000000 0.99796682596 0.00203310000
0.00000000000 0.99786597490 0.00213406957
0.00000000000 0.01133016683 0.98866975307
0.00000000000 0.99797886610 0.00202117208
1.00000000000 0.99488669634 0.00511335814
0.00000000000 0.99186909199 0.00813086703
0.00000000000 0.99713099003 0.00286893966
0.00000000000 0.99714523554 0.00285475911
0.00000000000 0.99787604809 0.00212395424
0.00000000000 0.99635738134 0.00364262960
0.00000000000 0.99750804901 0.00249189558
0.00000000000 0.99558997154 0.00441002520
0.00000000000 0.99794787169 0.00205213274
1.00000000000 0.27430638671 0.72569358349
0.00000000000 0.98444980383 0.01555015799
0.00000000000 0.99783867598 0.00216137571
0.00000000000 0.99798810482 0.00201186351
0.00000000000 0.45820257068 0.54179745913
0.00000000000 0.99789667130 0.00210328703
0.00000000000 0.00497985445 0.99502015114
0.00000000000 0.99484729767 0.00515275728
0.00000000000 0.99780768156 0.00219232752
0.00000000000 0.99777454138 0.00222539227
0.00000000000 0.99780160189 0.00219843700
0.00000000000 0.99796104431 0.00203897059
1.00000000000 0.59379875660 0.40620121360
0.00000000000 0.99787652493 0.00212351489
0.00000000000 0.99795818329 0.00204178505
0.00000000000 0.99675059319 0.00324938097
1.00000000000 0.99382591248 0.00617415365
0.00000000000 0.97079098225 0.02920897491
0.00000000000 0.99799156189 0.00200848607
1.00000000000 0.00293686264 0.99706310034
0.00000000000 0.85671633482 0.14328369498
0.00000000000 0.98942077160 0.01057927962
0.00000000000 0.99783736467 0.00216264813
0.00000000000 0.99796694517 0.00203308160
0.00000000000 0.99752312899 0.00247689849
0.00000000000 0.70709758997 0.29290238023
0.00000000000 0.99751436710 0.00248558819
0.00000000000 0.99676173925 0.00323826191
0.00000000000 0.98963648081 0.01036355365
1.00000000000 0.93765723705 0.06234271452
0.00000000000 0.99616986513 0.00383007387
0.00000000000 0.99535864592 0.00464130566
0.00000000000 0.99541962147 0.00458043674
1.00000000000 0.99758017063 0.00241980259
0.00000000000 0.99698728323 0.00301271561
1.00000000000 0.98765355349 0.01234648190
0.00000000000 0.21546235681 0.78453767300
0.00000000000 0.99721527100 0.00278466544
0.00000000000 0.99756324291 0.00243671169
0.00000000000 0.99667465687 0.00332539156
