1.00000000000 0.52364784479 0.47635218501
0.00000000000 0.52660536766 0.47339460254
0.00000000000 0.52389806509 0.47610193491
0.00000000000 0.52690857649 0.47309139371
0.00000000000 0.52258557081 0.47741442919
0.00000000000 0.53114455938 0.46885541081
0.00000000000 0.52778255939 0.47221744061
0.00000000000 0.52933192253 0.47066804767
0.00000000000 0.52084481716 0.47915515304
0.00000000000 0.52328354120 0.47671648860
1.00000000000 0.53006601334 0.46993404627
0.00000000000 0.52130216360 0.47869783640
1.00000000000 0.52022290230 0.47977712750
0.00000000000 0.52177304029 0.47822698951
0.00000000000 0.52660262585 0.47339734435
0.00000000000 0.52152556181 0.47847446799
0.00000000000 0.52771335840 0.47228664160
0.00000000000 0.53146791458 0.46853211522
0.00000000000 0.52938336134 0.47061663866
0.00000000000 0.51872837543 0.48127159476
0.00000000000 0.52650034428 0.47349968553
0.00000000000 0.52080017328 0.47919982672
1.00000000000 0.51266753674 0.48733246326
0.00000000000 0.51480603218 0.48519396782
0.00000000000 0.52755594254 0.47244405746
0.00000000000 0.52400130033 0.47599869967
0.00000000000 0.52086770535 0.47913232446
0.00000000000 0.52532660961 0.47467339039
0.00000000000 0.52981698513 0.47018307447
0.00000000000 0.53079634905 0.46920368075
0.00000000000 0.53130513430 0.46869489551
0.00000000000 0.53026425838 0.46973568201
0.00000000000 0.52719080448 0.47280919552
0.00000000000 0.51854938269 0.48145061731
0.00000000000 0.52970904112 0.47029092908
0.00000000000 0.53070312738 0.46929687262
0.00000000000 0.52195888758 0.47804108262
0.00000000000 0.52145475149 0.47854527831
0.00000000000 0.52874886990 0.47125110030
0.00000000000 0.52824962139 0.47175034881
1.00000000000 0.51334112883 0.48665890098
1.00000000000 0.51636463404 0.48363533616
0.00000000000 0.53170162439 0.46829837561
0.00000000000 0.51303666830 0.48696330190
0.00000000000 0.52610456944 0.47389543056
0.00000000000 0.52615261078 0.47384738922
0.00000000000 0.53077089787 0.46922913194
1.00000000000 0.52816253901 0.47183743119
1.00000000000 0.52416163683 0.47583842278
0.00000000000 0.52658069134 0.47341930866
0.00000000000 0.52897024155 0.47102972865
0.00000000000 0.53146374226 0.46853628755
0.00000000000 0.52514529228 0.47485473752
0.00000000000 0.52061611414 0.47938391566
0.00000000000 0.52650415897 0.47349578142
0.00000000000 0.52963894606 0.47036108375
0.00000000000 0.52457529306 0.47542470694
0.00000000000 0.52603268623 0.47396731377
0.00000000000 0.52263528109 0.47736474872
0.00000000000 0.52857065201 0.47142934799
1.00000000000 0.52867740393 0.47132259607
0.00000000000 0.53114175797 0.46885818243
0.00000000000 0.52911305428 0.47088691592
0.00000000000 0.52556186914 0.47443810105
0.00000000000 0.53160345554 0.46839654446
0.00000000000 0.52648401260 0.47351601720
0.00000000000 0.51691317558 0.48308682442
1.00000000000 0.52526158094 0.47473838925
1.00000000000 0.52734404802 0.47265595198
0.00000000000 0.52987164259 0.47012835741
1.00000000000 0.52470809221 0.47529190779
1.00000000000 0.52565699816 0.47434303164
0.00000000000 0.52660721540 0.47339272499
0.00000000000 0.53077977896 0.46922022104
0.00000000000 0.52968019247 0.47031974792
0.00000000000 0.52991396189 0.47008606791
1.00000000000 0.52608442307 0.47391554713
1.00000000000 0.53106534481 0.46893465519
0.00000000000 0.51129728556 0.48870268464
0.00000000000 0.52410262823 0.47589743137
1.00000000000 0.52697634697 0.47302362323
0.00000000000 0.52469509840 0.47530487180
1.00000000000 0.52986091375 0.47013908625
0.00000000000 0.52081984282 0.47918012738
1.00000000000 0.52254158258 0.47745841742
0.00000000000 0.53159725666 0.46840271354
0.00000000000 0.52692902088 0.47307100892
0.00000000000 0.51639419794 0.48360583186
0.00000000000 0.53059989214 0.46940010786
0.00000000000 0.51410126686 0.48589876294
0.00000000000 0.52263122797 0.47736877203
1.00000000000 0.52444517612 0.47555476427
0.00000000000 0.52855610847 0.47144395113
0.00000000000 0.51783668995 0.48216333985
0.00000000000 0.52079528570 0.47920471430
0.00000000000 0.51893949509 0.48106050491
1.00000000000 0.52254450321 0.47745546699
0.00000000000 0.52802228928 0.47197774053
0.00000000000 0.52379894257 0.47620105743
0.00000000000 0.52669799328 0.47330206633
0.00000000000 0.52461385727 0.47538611293
0.00000000000 0.52107131481 0.47892874479
0.00000000000 0.52641558647 0.47358438373
0.00000000000 0.52621495724 0.47378504276
0.00000000000 0.53024756908 0.46975237131
0.00000000000 0.52295696735 0.47704309225
0.00000000000 0.52888470888 0.47111529112
0.00000000000 0.52622634172 0.47377368808
0.00000000000 0.52529233694 0.47470763326
0.00000000000 0.52384436131 0.47615566850
0.00000000000 0.52119147778 0.47880855203
1.00000000000 0.51584678888 0.48415321112
0.00000000000 0.52856588364 0.47143408656
0.00000000000 0.51663208008 0.48336789012
0.00000000000 0.52779322863 0.47220683098
0.00000000000 0.52820056677 0.47179946303
0.00000000000 0.52369844913 0.47630152106
0.00000000000 0.51527947187 0.48472049832
1.00000000000 0.52391296625 0.47608703375
0.00000000000 0.52758711576 0.47241288424
1.00000000000 0.51510429382 0.48489573598
0.00000000000 0.51920455694 0.48079544306
0.00000000000 0.52779924870 0.47220072150
0.00000000000 0.52031254768 0.47968742251
0.00000000000 0.51367068291 0.48632928729
0.00000000000 0.52622586489 0.47377407551
0.00000000000 0.52561002970 0.47439000010
0.00000000000 0.52900338173 0.47099661827
0.00000000000 0.52979308367 0.47020688653
1.00000000000 0.52027130127 0.47972872853
0.00000000000 0.52671134472 0.47328862548
1.00000000000 0.52505469322 0.47494533658
0.00000000000 0.52895891666 0.47104105353
0.00000000000 0.52090233564 0.47909766436
0.00000000000 0.53033190966 0.46966812015
1.00000000000 0.52449178696 0.47550827265
0.00000000000 0.51895171404 0.48104831576
0.00000000000 0.53124743700 0.46875256300
1.00000000000 0.52485913038 0.47514092922
0.00000000000 0.52123659849 0.47876343131
0.00000000000 0.51731836796 0.48268160224
0.00000000000 0.52696365118 0.47303637862
1.00000000000 0.52132362127 0.47867640853
0.00000000000 0.52640116215 0.47359886765
0.00000000000 0.53132224083 0.46867778897
0.00000000000 0.52917188406 0.47082811594
0.00000000000 0.52499818802 0.47500178218
0.00000000000 0.52534699440 0.47465306520
0.00000000000 0.51879793406 0.48120206594
0.00000000000 0.51921743155 0.48078250885
0.00000000000 0.52848225832 0.47151780128
0.00000000000 0.52364438772 0.47635564208
0.00000000000 0.52891522646 0.47108474374
0.00000000000 0.51832967997 0.48167029023
0.00000000000 0.53009039164 0.46990966797
0.00000000000 0.51822382212 0.48177614808
0.00000000000 0.52897548676 0.47102451324
0.00000000000 0.52993023396 0.47006973624
0.00000000000 0.53069454432 0.46930548549
1.00000000000 0.51572471857 0.48427525163
0.00000000000 0.51365178823 0.48634818196
0.00000000000 0.53007447720 0.46992552280
0.00000000000 0.52866089344 0.47133913636
0.00000000000 0.52302289009 0.47697716951
0.00000000000 0.52500241995 0.47499758005
1.00000000000 0.52964609861 0.47035387158
0.00000000000 0.52699291706 0.47300705314
0.00000000000 0.53150618076 0.46849384904
0.00000000000 0.52863729000 0.47136273980
0.00000000000 0.53065246344 0.46934756637
1.00000000000 0.52352601290 0.47647401690
0.00000000000 0.52820605040 0.47179391980
0.00000000000 0.52514094114 0.47485902905
1.00000000000 0.52881830931 0.47118166089
0.00000000000 0.52740257978 0.47259739041
0.00000000000 0.51476788521 0.48523208499
0.00000000000 0.52449840307 0.47550165653
0.00000000000 0.52273821831 0.47726175189
0.00000000000 0.52460026741 0.47539970279
0.00000000000 0.52391993999 0.47608003020
0.00000000000 0.53082108498 0.46917894483
0.00000000000 0.52918666601 0.47081336379
0.00000000000 0.52670937777 0.47329062223
0.00000000000 0.51934868097 0.48065128922
0.00000000000 0.52442634106 0.47557368875
0.00000000000 0.52800440788 0.47199553251
0.00000000000 0.53104811907 0.46895185113
1.00000000000 0.51065599918 0.48934406042
0.00000000000 0.53040564060 0.46959435940
0.00000000000 0.52210551500 0.47789442539
0.00000000000 0.52402299643 0.47597700357
0.00000000000 0.52679991722 0.47320005298
0.00000000000 0.51661109924 0.48338887095
0.00000000000 0.52939379215 0.47060620785
0.00000000000 0.52874571085 0.47125431895
0.00000000000 0.52430999279 0.47568994761
0.00000000000 0.52820390463 0.47179609537
0.00000000000 0.52578520775 0.47421479225
0.00000000000 0.52808159590 0.47191840410
0.00000000000 0.53110766411 0.46889227629
0.00000000000 0.52605295181 0.47394701838
0.00000000000 0.52978676558 0.47021323442
1.00000000000 0.51510471106 0.48489525914
1.00000000000 0.52164882421 0.47835117579
0.00000000000 0.52245491743 0.47754505277
0.00000000000 0.53100740910 0.46899253130
1.00000000000 0.52978032827 0.47021967173
0.00000000000 0.53120434284 0.46879565716
0.00000000000 0.53021734953 0.46978268027
1.00000000000 0.51362049580 0.48637947440
1.00000000000 0.52336597443 0.47663402557
0.00000000000 0.52012640238 0.47987359762
0.00000000000 0.52294731140 0.47705271840
0.00000000000 0.52383720875 0.47616276145
0.00000000000 0.52692258358 0.47307741642
0.00000000000 0.52887737751 0.47112262249
0.00000000000 0.53049427271 0.46950572729
0.00000000000 0.52010959387 0.47989043593
0.00000000000 0.51746547222 0.48253452778
0.00000000000 0.51978200674 0.48021802306
0.00000000000 0.51995480061 0.48004519939
0.00000000000 0.53025597334 0.46974402666
0.00000000000 0.51963913441 0.48036092520
0.00000000000 0.52301609516 0.47698393464
0.00000000000 0.52944099903 0.47055903077
0.00000000000 0.52368843555 0.47631159425
1.00000000000 0.52520996332 0.47479003668
0.00000000000 0.52912795544 0.47087210417
0.00000000000 0.52619391680 0.47380605340
1.00000000000 0.51794731617 0.48205274343
0.00000000000 0.51966136694 0.48033863306
0.00000000000 0.51893943548 0.48106053472
0.00000000000 0.52988094091 0.47011902928
0.00000000000 0.52965712547 0.47034284472
0.00000000000 0.52519494295 0.47480508685
0.00000000000 0.52331006527 0.47668996453
0.00000000000 0.52529370785 0.47470629215
0.00000000000 0.52955609560 0.47044387460
0.00000000000 0.51640301943 0.48359695077
0.00000000000 0.52378445864 0.47621557117
0.00000000000 0.52326756716 0.47673240304
0.00000000000 0.52962565422 0.47037440538
0.00000000000 0.52870631218 0.47129368782
1.00000000000 0.52452653646 0.47547349334
0.00000000000 0.52507585287 0.47492408752
0.00000000000 0.52826350927 0.47173652053
0.00000000000 0.52341860533 0.47658136487
0.00000000000 0.53027749062 0.46972247958
0.00000000000 0.53103107214 0.46896892786
0.00000000000 0.52447372675 0.47552624345
0.00000000000 0.51954197884 0.48045805097
0.00000000000 0.52589315176 0.47410684824
1.00000000000 0.52579253912 0.47420749068
1.00000000000 0.53051686287 0.46948313713
0.00000000000 0.51913303137 0.48086696863
0.00000000000 0.52577793598 0.47422203422
0.00000000000 0.52718770504 0.47281223536
1.00000000000 0.51574546099 0.48425450921
0.00000000000 0.53065651655 0.46934348345
0.00000000000 0.52721112967 0.47278884053
0.00000000000 0.52178323269 0.47821673751
0.00000000000 0.52837389708 0.47162610292
0.00000000000 0.51616901159 0.48383098841
0.00000000000 0.52642238140 0.47357758880
0.00000000000 0.53027462959 0.46972537041
0.00000000000 0.51748144627 0.48251855373
0.00000000000 0.52961462736 0.47038540244
0.00000000000 0.52668839693 0.47331157327
0.00000000000 0.51875793934 0.48124206066
0.00000000000 0.53094023466 0.46905976534
0.00000000000 0.52218157053 0.47781845927
0.00000000000 0.53033977747 0.46966025233
0.00000000000 0.52626347542 0.47373649478
0.00000000000 0.53186523914 0.46813476086
0.00000000000 0.52984642982 0.47015357018
1.00000000000 0.52490031719 0.47509968281
0.00000000000 0.52757179737 0.47242817283
0.00000000000 0.52888745070 0.47111254930
0.00000000000 0.52686309814 0.47313693166
0.00000000000 0.52679771185 0.47320228815
0.00000000000 0.52410882711 0.47589114308
1.00000000000 0.51681178808 0.48318818212
1.00000000000 0.52330178022 0.47669818997
0.00000000000 0.52818107605 0.47181886435
0.00000000000 0.52262103558 0.47737896442
0.00000000000 0.52922052145 0.47077944875
0.00000000000 0.52542614937 0.47457385063
1.00000000000 0.53103220463 0.46896779537
0.00000000000 0.51408988237 0.48591011763
1.00000000000 0.52924543619 0.47075459361
0.00000000000 0.52872347832 0.47127652168
0.00000000000 0.52861982584 0.47138014436
0.00000000000 0.51753282547 0.48246717453
0.00000000000 0.50954669714 0.49045327306
1.00000000000 0.52883768082 0.47116231918
0.00000000000 0.52684795856 0.47315201163
0.00000000000 0.53068131208 0.46931871772
0.00000000000 0.51038569212 0.48961436749
0.00000000000 0.52483439445 0.47516554594
0.00000000000 0.52922201157 0.47077795863
0.00000000000 0.52348166704 0.47651836276
0.00000000000 0.52318406105 0.47681593895
0.00000000000 0.53113979101 0.46886023879
1.00000000000 0.52437984943 0.47562012076
0.00000000000 0.52985930443 0.47014069557
0.00000000000 0.53001332283 0.46998670697
0.00000000000 0.52526783943 0.47473213077
0.00000000000 0.52971494198 0.47028502822
0.00000000000 0.52831101418 0.47168901563
1.00000000000 0.52383434772 0.47616562247
0.00000000000 0.52043861151 0.47956138849
0.00000000000 0.53132516146 0.46867483854
0.00000000000 0.53047168255 0.46952828765
0.00000000000 0.53121685982 0.46878311038
1.00000000000 0.50972372293 0.49027627707
1.00000000000 0.52619761229 0.47380235791
1.00000000000 0.52030515671 0.47969484329
0.00000000000 0.52278047800 0.47721946239
1.00000000000 0.52837044001 0.47162950039
0.00000000000 0.52727061510 0.47272938490
0.00000000000 0.52181410789 0.47818589211
0.00000000000 0.52672713995 0.47327283025
0.00000000000 0.53167480230 0.46832519770
0.00000000000 0.51903998852 0.48096004128
0.00000000000 0.52779716253 0.47220283747
0.00000000000 0.52386379242 0.47613617778
0.00000000000 0.52565604448 0.47434401512
1.00000000000 0.51931512356 0.48068487644
0.00000000000 0.52585774660 0.47414225340
0.00000000000 0.52424830198 0.47575175762
1.00000000000 0.53123021126 0.46876984835
0.00000000000 0.53123992682 0.46876007318
0.00000000000 0.52281653881 0.47718343139
0.00000000000 0.52787029743 0.47212967277
1.00000000000 0.52421879768 0.47578123212
0.00000000000 0.52216005325 0.47783988714
1.00000000000 0.52856200933 0.47143796086
1.00000000000 0.52674865723 0.47325137258
0.00000000000 0.52728462219 0.47271540761
0.00000000000 0.53134679794 0.46865317225
1.00000000000 0.52581441402 0.47418555617
1.00000000000 0.53121024370 0.46878972650
1.00000000000 0.52231156826 0.47768846154
0.00000000000 0.52968174219 0.47031822801
0.00000000000 0.53021287918 0.46978709102
0.00000000000 0.52715551853 0.47284448147
0.00000000000 0.52912294865 0.47087705135
0.00000000000 0.53163456917 0.46836543083
1.00000000000 0.52451658249 0.47548347712
0.00000000000 0.53093022108 0.46906983852
1.00000000000 0.52254468203 0.47745531797
0.00000000000 0.52622181177 0.47377818823
1.00000000000 0.52884107828 0.47115892172
0.00000000000 0.52515619993 0.47484382987
0.00000000000 0.52714282274 0.47285720706
0.00000000000 0.53095215559 0.46904784441
0.00000000000 0.52824580669 0.47175419331
0.00000000000 0.51891404390 0.48108595610
0.00000000000 0.53015059233 0.46984943748
0.00000000000 0.52456229925 0.47543773055
0.00000000000 0.52524191141 0.47475805879
0.00000000000 0.51674205065 0.48325788975
0.00000000000 0.52991557121 0.47008442879
1.00000000000 0.53017449379 0.46982550621
0.00000000000 0.52356797457 0.47643205523
0.00000000000 0.53068774939 0.46931219101
0.00000000000 0.53085559607 0.46914440393
0.00000000000 0.52944946289 0.47055053711
0.00000000000 0.53070670366 0.46929329634
0.00000000000 0.52883923054 0.47116070986
0.00000000000 0.52713799477 0.47286200523
0.00000000000 0.52970522642 0.47029480338
0.00000000000 0.53004360199 0.46995636821
0.00000000000 0.52814769745 0.47185233235
0.00000000000 0.52396965027 0.47603034973
0.00000000000 0.52363407612 0.47636595368
0.00000000000 0.52150785923 0.47849220037
0.00000000000 0.52556824684 0.47443178296
1.00000000000 0.52955746651 0.47044250369
0.00000000000 0.52269047499 0.47730949521
0.00000000000 0.53087389469 0.46912610531
0.00000000000 0.53095203638 0.46904793382
0.00000000000 0.52549886703 0.47450116277
0.00000000000 0.52990216017 0.47009783983
0.00000000000 0.52283620834 0.47716376185
0.00000000000 0.52269577980 0.47730422020
0.00000000000 0.53051036596 0.46948966384
0.00000000000 0.52876931429 0.47123065591
0.00000000000 0.53115260601 0.46884742379
0.00000000000 0.51844012737 0.48155990243
0.00000000000 0.52723908424 0.47276094556
0.00000000000 0.51882362366 0.48117637634
0.00000000000 0.53013712168 0.46986290812
0.00000000000 0.53047966957 0.46952030063
0.00000000000 0.51641565561 0.48358440399
1.00000000000 0.52202659845 0.47797340155
0.00000000000 0.53094547987 0.46905457973
0.00000000000 0.52997332811 0.47002667189
0.00000000000 0.52778917551 0.47221082449
1.00000000000 0.52499586344 0.47500410676
0.00000000000 0.53044480085 0.46955522895
0.00000000000 0.52781015635 0.47218981385
0.00000000000 0.52980679274 0.47019323707
0.00000000000 0.52815705538 0.47184294462
0.00000000000 0.52809989452 0.47190013528
0.00000000000 0.52994066477 0.47005936503
0.00000000000 0.51986676455 0.48013323545
0.00000000000 0.52773666382 0.47226333618
1.00000000000 0.52639788389 0.47360217571
0.00000000000 0.52368706465 0.47631293535
0.00000000000 0.51963973045 0.48036026955
0.00000000000 0.52009028196 0.47990974784
0.00000000000 0.51445931196 0.48554068804
0.00000000000 0.52866864204 0.47133135796
0.00000000000 0.52623951435 0.47376054525
0.00000000000 0.53057473898 0.46942529082
0.00000000000 0.53032457829 0.46967548132
0.00000000000 0.51819020510 0.48180976510
0.00000000000 0.53024417162 0.46975582838
0.00000000000 0.52958869934 0.47041130066
0.00000000000 0.51960617304 0.48039385676
0.00000000000 0.52383500338 0.47616499662
0.00000000000 0.52591538429 0.47408458591
0.00000000000 0.52847588062 0.47152408957
0.00000000000 0.53022217751 0.46977782249
0.00000000000 0.52671986818 0.47328016162
0.00000000000 0.52373081446 0.47626918554
0.00000000000 0.52305048704 0.47694951296
0.00000000000 0.52129507065 0.47870492935
0.00000000000 0.52871948481 0.47128057480
0.00000000000 0.52971243858 0.47028759122
0.00000000000 0.51571452618 0.48428553343
0.00000000000 0.52976125479 0.47023880482
0.00000000000 0.52942246199 0.47057750821
0.00000000000 0.52760201693 0.47239801288
0.00000000000 0.52800202370 0.47199800611
0.00000000000 0.53068393469 0.46931606531
0.00000000000 0.52914303541 0.47085693479
0.00000000000 0.53006345034 0.46993657947
0.00000000000 0.52999496460 0.47000497580
1.00000000000 0.51713126898 0.48286873102
0.00000000000 0.53025937080 0.46974062920
0.00000000000 0.52340543270 0.47659459710
0.00000000000 0.53142821789 0.46857175231
0.00000000000 0.52451431751 0.47548568249
1.00000000000 0.52193629742 0.47806367278
0.00000000000 0.52244043350 0.47755950689
0.00000000000 0.52464944124 0.47535058856
0.00000000000 0.53011637926 0.46988359094
0.00000000000 0.52071887255 0.47928109765
1.00000000000 0.52321773767 0.47678220272
0.00000000000 0.53045284748 0.46954718232
0.00000000000 0.52064287663 0.47935712337
0.00000000000 0.51998835802 0.48001164198
0.00000000000 0.52918112278 0.47081881762
0.00000000000 0.52736943960 0.47263062000
0.00000000000 0.52990680933 0.47009316087
0.00000000000 0.52859336138 0.47140663862
0.00000000000 0.51821261644 0.48178735375
0.00000000000 0.52739858627 0.47260144353
0.00000000000 0.52762389183 0.47237610817
0.00000000000 0.52991431952 0.47008568048
0.00000000000 0.52982002497 0.47017991543
0.00000000000 0.52283889055 0.47716110945
0.00000000000 0.52656018734 0.47343978286
0.00000000000 0.52812731266 0.47187268734
0.00000000000 0.53113931417 0.46886065602
0.00000000000 0.52626734972 0.47373268008
0.00000000000 0.52919203043 0.47080796957
0.00000000000 0.52705526352 0.47294473648
0.00000000000 0.52299374342 0.47700631618
0.00000000000 0.52531617880 0.47468379140
1.00000000000 0.52404630184 0.47595375776
0.00000000000 0.52078121901 0.47921884060
0.00000000000 0.53143072128 0.46856927872
0.00000000000 0.52789324522 0.47210678458
0.00000000000 0.52482175827 0.47517821193
1.00000000000 0.51165896654 0.48834100366
0.00000000000 0.52431237698 0.47568765283
0.00000000000 0.53160512447 0.46839487553
0.00000000000 0.53152889013 0.46847110987
0.00000000000 0.53033715487 0.46966281533
0.00000000000 0.53170204163 0.46829798818
0.00000000000 0.52763569355 0.47236430645
0.00000000000 0.52277976274 0.47722023726
0.00000000000 0.51995587349 0.48004409671
0.00000000000 0.52799135447 0.47200867534
0.00000000000 0.53107094765 0.46892905235
0.00000000000 0.52838289738 0.47161713243
0.00000000000 0.51502013206 0.48497989774
0.00000000000 0.52899104357 0.47100889683
0.00000000000 0.52861553431 0.47138449550
0.00000000000 0.52072346210 0.47927650809
1.00000000000 0.52757233381 0.47242763638
1.00000000000 0.52151894569 0.47848102450
0.00000000000 0.52751058340 0.47248941660
1.00000000000 0.53094166517 0.46905827522
0.00000000000 0.52474117279 0.47525882721
0.00000000000 0.52361702919 0.47638291121
0.00000000000 0.52143269777 0.47856727242
0.00000000000 0.51932960749 0.48067039251
0.00000000000 0.51281863451 0.48718133569
0.00000000000 0.52495789528 0.47504204512
0.00000000000 0.51919430494 0.48080569506
0.00000000000 0.52035915852 0.47964081168
0.00000000000 0.52472019196 0.47527983785
0.00000000000 0.51575905085 0.48424094915
0.00000000000 0.51443582773 0.48556414247
0.00000000000 0.51718461514 0.48281541467
0.00000000000 0.52080410719 0.47919592261
0.00000000000 0.51186388731 0.48813605309
1.00000000000 0.53004223108 0.46995782852
0.00000000000 0.52800124884 0.47199872136
0.00000000000 0.51362079382 0.48637917638
0.00000000000 0.52269089222 0.47730910778
0.00000000000 0.53072065115 0.46927937865
0.00000000000 0.52530944347 0.47469049692
0.00000000000 0.53186172247 0.46813824773
0.00000000000 0.52691918612 0.47308087349
0.00000000000 0.52251094580 0.47748902440
0.00000000000 0.52106100321 0.47893899679
0.00000000000 0.53082442284 0.46917554736
0.00000000000 0.52981942892 0.47018054128
0.00000000000 0.52658796310 0.47341203690
0.00000000000 0.52850335836 0.47149667144
0.00000000000 0.52100974321 0.47899022698
0.00000000000 0.52751189470 0.47248807549
0.00000000000 0.51174545288 0.48825451732
0.00000000000 0.52149349451 0.47850644588
0.00000000000 0.52527850866 0.47472149134
0.00000000000 0.53099197149 0.46900799870
0.00000000000 0.53137934208 0.46862065792
0.00000000000 0.52806907892 0.47193092108
0.00000000000 0.51983720064 0.48016279936
1.00000000000 0.51520586014 0.48479413986
0.00000000000 0.51827132702 0.48172864318
0.00000000000 0.53160238266 0.46839761734
0.00000000000 0.52384674549 0.47615331411
0.00000000000 0.51711374521 0.48288628459
0.00000000000 0.51202440262 0.48797559738
1.00000000000 0.52173966169 0.47826033831
1.00000000000 0.51965397596 0.48034602404
0.00000000000 0.52895373106 0.47104629874
0.00000000000 0.52010101080 0.47989901900
0.00000000000 0.53017359972 0.46982643008
0.00000000000 0.51995253563 0.48004746437
0.00000000000 0.51860266924 0.48139733076
0.00000000000 0.52579724789 0.47420278192
0.00000000000 0.52964633703 0.47035360336
0.00000000000 0.51381653547 0.48618343472
0.00000000000 0.52629715204 0.47370281816
0.00000000000 0.52385920286 0.47614079714
0.00000000000 0.53073364496 0.46926635504
0.00000000000 0.52107399702 0.47892594337
0.00000000000 0.52600079775 0.47399920225
0.00000000000 0.52881813049 0.47118189931
0.00000000000 0.52166622877 0.47833377123
0.00000000000 0.53099614382 0.46900382638
0.00000000000 0.52940440178 0.47059553862
0.00000000000 0.52480632067 0.47519364953
0.00000000000 0.52775073051 0.47224929929
0.00000000000 0.52737540007 0.47262459993
0.00000000000 0.52433103323 0.47566890717
0.00000000000 0.51540315151 0.48459681869
1.00000000000 0.52579540014 0.47420462966
0.00000000000 0.53178596497 0.46821400523
0.00000000000 0.52177846432 0.47822153568
1.00000000000 0.51364564896 0.48635435104
0.00000000000 0.52816742659 0.47183254361
1.00000000000 0.51506197453 0.48493802547
0.00000000000 0.52647447586 0.47352555394
0.00000000000 0.52946412563 0.47053587437
0.00000000000 0.53013485670 0.46986511350
0.00000000000 0.52732867002 0.47267132998
0.00000000000 0.52818590403 0.47181409597
0.00000000000 0.52913117409 0.47086882591
0.00000000000 0.52929353714 0.47070643306
0.00000000000 0.52503347397 0.47496655583
0.00000000000 0.52914452553 0.47085544467
0.00000000000 0.53063660860 0.46936342120
0.00000000000 0.53167474270 0.46832525730
0.00000000000 0.52936208248 0.47063791752
0.00000000000 0.51237171888 0.48762828112
0.00000000000 0.52087974548 0.47912028432
0.00000000000 0.51817226410 0.48182770610
0.00000000000 0.52627813816 0.47372192144
0.00000000000 0.52944606543 0.47055393457
0.00000000000 0.52580726147 0.47419270873
0.00000000000 0.52192968130 0.47807031870
0.00000000000 0.52199214697 0.47800782323
0.00000000000 0.52673447132 0.47326549888
0.00000000000 0.53148251772 0.46851745248
1.00000000000 0.52022439241 0.47977563739
1.00000000000 0.51796382666 0.48203617334
0.00000000000 0.51289105415 0.48710891604
0.00000000000 0.52351975441 0.47648030519
0.00000000000 0.53144484758 0.46855512261
0.00000000000 0.51865673065 0.48134326935
0.00000000000 0.52675569057 0.47324424982
0.00000000000 0.52705293894 0.47294712067
1.00000000000 0.51527541876 0.48472452164
1.00000000000 0.53080993891 0.46919006109
0.00000000000 0.53095191717 0.46904811263
1.00000000000 0.53040605783 0.46959400177
0.00000000000 0.52757745981 0.47242254019
0.00000000000 0.52363640070 0.47636362910
1.00000000000 0.53074914217 0.46925082803
0.00000000000 0.52001607418 0.47998389602
1.00000000000 0.52725750208 0.47274252772
0.00000000000 0.51741397381 0.48258599639
0.00000000000 0.52088338137 0.47911658883
0.00000000000 0.52421325445 0.47578677535
0.00000000000 0.53100097179 0.46899899840
0.00000000000 0.52067488432 0.47932511568
0.00000000000 0.52826476097 0.47173517942
0.00000000000 0.51750409603 0.48249593377
0.00000000000 0.52679103613 0.47320899367
0.00000000000 0.52369409800 0.47630590200
0.00000000000 0.52404427528 0.47595572472
0.00000000000 0.52267116308 0.47732877731
0.00000000000 0.52643793821 0.47356206179
0.00000000000 0.52946323156 0.47053676844
0.00000000000 0.53141009808 0.46858987212
0.00000000000 0.52932029963 0.47067964077
1.00000000000 0.52721035480 0.47278967500
0.00000000000 0.52132898569 0.47867095470
0.00000000000 0.50982213020 0.49017783999
0.00000000000 0.52818161249 0.47181838751
0.00000000000 0.52659404278 0.47340598702
0.00000000000 0.52435207367 0.47564792633
0.00000000000 0.51968252659 0.48031747341
0.00000000000 0.52687275410 0.47312721610
0.00000000000 0.51800328493 0.48199671507
0.00000000000 0.52135437727 0.47864562273
1.00000000000 0.52885609865 0.47114387155
0.00000000000 0.52901232243 0.47098767757
0.00000000000 0.52876615524 0.47123384476
0.00000000000 0.52512866259 0.47487136722
0.00000000000 0.53047370911 0.46952632070
0.00000000000 0.53074610233 0.46925383806
1.00000000000 0.52225518227 0.47774481773
0.00000000000 0.52440589666 0.47559404373
1.00000000000 0.51606279612 0.48393723369
0.00000000000 0.52895909548 0.47104090452
0.00000000000 0.52723294497 0.47276711464
0.00000000000 0.52648919821 0.47351077199
1.00000000000 0.52944624424 0.47055378556
0.00000000000 0.52902185917 0.47097808123
0.00000000000 0.52091926336 0.47908067703
1.00000000000 0.50980514288 0.49019482732
0.00000000000 0.52969270945 0.47030729055
0.00000000000 0.53159576654 0.46840423346
0.00000000000 0.52942675352 0.47057327628
1.00000000000 0.51984584332 0.48015415668
0.00000000000 0.52232062817 0.47767934203
0.00000000000 0.53150570393 0.46849432588
0.00000000000 0.52129477262 0.47870519757
0.00000000000 0.52140295506 0.47859701514
0.00000000000 0.51346468925 0.48653534055
1.00000000000 0.52917265892 0.47082731128
0.00000000000 0.52855938673 0.47144061327
0.00000000000 0.53173702955 0.46826300025
1.00000000000 0.52277278900 0.47722715139
0.00000000000 0.52469992638 0.47530001402
0.00000000000 0.52883946896 0.47116050124
0.00000000000 0.52846384048 0.47153609991
0.00000000000 0.52672648430 0.47327348590
0.00000000000 0.52923309803 0.47076687217
0.00000000000 0.51890528202 0.48109471798
0.00000000000 0.53050351143 0.46949648857
0.00000000000 0.52955543995 0.47044456005
0.00000000000 0.53186392784 0.46813610196
0.00000000000 0.52996313572 0.47003686428
0.00000000000 0.52496170998 0.47503826022
0.00000000000 0.52173948288 0.47826048732
0.00000000000 0.51743566990 0.48256430030
1.00000000000 0.52023178339 0.47976821661
1.00000000000 0.52294999361 0.47705000639
0.00000000000 0.51895058155 0.48104944825
0.00000000000 0.52963656187 0.47036349773
0.00000000000 0.52611196041 0.47388806939
1.00000000000 0.52766436338 0.47233563662
0.00000000000 0.51870763302 0.48129236698
0.00000000000 0.51598709822 0.48401287198
0.00000000000 0.52812403440 0.47187599540
0.00000000000 0.53003472090 0.46996524930
0.00000000000 0.52092707157 0.47907295823
0.00000000000 0.52708566189 0.47291433811
1.00000000000 0.52877992392 0.47122010589
0.00000000000 0.52742564678 0.47257438302
0.00000000000 0.53114110231 0.46885892749
0.00000000000 0.52273565531 0.47726428509
0.00000000000 0.52382743359 0.47617256641
0.00000000000 0.52886950970 0.47113043070
0.00000000000 0.51473361254 0.48526638746
0.00000000000 0.52702748775 0.47297254205
0.00000000000 0.51536744833 0.48463252187
0.00000000000 0.52150326967 0.47849673033
0.00000000000 0.52714389563 0.47285610437
0.00000000000 0.52599036694 0.47400966287
1.00000000000 0.52717643976 0.47282350063
0.00000000000 0.51944887638 0.48055115342
0.00000000000 0.52388620377 0.47611382604
0.00000000000 0.52354180813 0.47645813227
0.00000000000 0.51659667492 0.48340332508
0.00000000000 0.53160333633 0.46839663386
0.00000000000 0.52823960781 0.47176036239
1.00000000000 0.52643048763 0.47356945276
0.00000000000 0.52439296246 0.47560703754
0.00000000000 0.52228301764 0.47771698236
0.00000000000 0.53074407578 0.46925592422
0.00000000000 0.52396887541 0.47603112459
0.00000000000 0.52658170462 0.47341829538
0.00000000000 0.52480781078 0.47519221902
0.00000000000 0.53140151501 0.46859845519
0.00000000000 0.53080254793 0.46919748187
0.00000000000 0.52880799770 0.47119197249
1.00000000000 0.52702677250 0.47297319770
0.00000000000 0.53158193827 0.46841806173
0.00000000000 0.53011256456 0.46988749504
1.00000000000 0.51688575745 0.48311421275
0.00000000000 0.51578408480 0.48421594501
0.00000000000 0.52839261293 0.47160741687
0.00000000000 0.52823764086 0.47176232934
1.00000000000 0.52751260996 0.47248739004
0.00000000000 0.52911752462 0.47088247538
0.00000000000 0.52982932329 0.47017067671
0.00000000000 0.52497529984 0.47502464056
0.00000000000 0.52232170105 0.47767826915
0.00000000000 0.53012835979 0.46987161040
0.00000000000 0.52675712109 0.47324284911
0.00000000000 0.52097535133 0.47902458906
0.00000000000 0.52939611673 0.47060385346
0.00000000000 0.52211964130 0.47788038850
0.00000000000 0.51932954788 0.48067045212
1.00000000000 0.53130215406 0.46869784594
0.00000000000 0.52666193247 0.47333809733
0.00000000000 0.52986884117 0.47013112903
0.00000000000 0.52675914764 0.47324085236
0.00000000000 0.52231657505 0.47768345475
0.00000000000 0.52292430401 0.47707572579
0.00000000000 0.52576541901 0.47423458099
0.00000000000 0.51663458347 0.48336538672
1.00000000000 0.52713894844 0.47286105156
0.00000000000 0.51744604111 0.48255392909
1.00000000000 0.51483011246 0.48516991735
0.00000000000 0.52912265062 0.47087731957
0.00000000000 0.52292859554 0.47707140446
0.00000000000 0.52879625559 0.47120374441
0.00000000000 0.53115665913 0.46884334087
0.00000000000 0.52366536856 0.47633460164
0.00000000000 0.53059977293 0.46940025687
0.00000000000 0.52064913511 0.47935089469
0.00000000000 0.52892017365 0.47107982635
1.00000000000 0.52263730764 0.47736272216
0.00000000000 0.53096956015 0.46903043985
0.00000000000 0.52103215456 0.47896787524
1.00000000000 0.51796692610 0.48203304410
0.00000000000 0.52948665619 0.47051337361
1.00000000000 0.52383083105 0.47616916895
1.00000000000 0.52357143164 0.47642856836
1.00000000000 0.52435714006 0.47564288974
1.00000000000 0.52801477909 0.47198519111
0.00000000000 0.51858997345 0.48140999675
0.00000000000 0.52687865496 0.47312137485
0.00000000000 0.53170663118 0.46829333901
0.00000000000 0.52877491713 0.47122511268
0.00000000000 0.52353143692 0.47646853328
0.00000000000 0.52871119976 0.47128877044
0.00000000000 0.52934211493 0.47065788507
0.00000000000 0.52990883589 0.47009119391
0.00000000000 0.51984632015 0.48015367985
0.00000000000 0.53071802855 0.46928191185
0.00000000000 0.52763968706 0.47236034274
0.00000000000 0.53057026863 0.46942976117
1.00000000000 0.52547103167 0.47452899814
0.00000000000 0.52995163202 0.47004836798
0.00000000000 0.52366685867 0.47633314133
1.00000000000 0.52111148834 0.47888851166
0.00000000000 0.51400810480 0.48599192500
1.00000000000 0.51346355677 0.48653641343
0.00000000000 0.51961898804 0.48038104177
0.00000000000 0.52890646458 0.47109350562
0.00000000000 0.52749216557 0.47250780463
0.00000000000 0.52836906910 0.47163090110
0.00000000000 0.52871924639 0.47128069401
0.00000000000 0.51715326309 0.48284673691
0.00000000000 0.51744228601 0.48255765438
0.00000000000 0.52355605364 0.47644388676
0.00000000000 0.52377408743 0.47622591257
1.00000000000 0.52976149321 0.47023850679
0.00000000000 0.51663404703 0.48336595297
0.00000000000 0.52192616463 0.47807380557
1.00000000000 0.52477890253 0.47522106767
0.00000000000 0.52048093081 0.47951906919
0.00000000000 0.52652305365 0.47347700596
0.00000000000 0.52509272099 0.47490733862
0.00000000000 0.53080087900 0.46919912100
1.00000000000 0.52250206470 0.47749790549
0.00000000000 0.52928030491 0.47071966529
0.00000000000 0.52992820740 0.47007173300
0.00000000000 0.53158086538 0.46841913462
0.00000000000 0.52980583906 0.47019410133
0.00000000000 0.52694165707 0.47305828333
0.00000000000 0.52403211594 0.47596782446
1.00000000000 0.52632242441 0.47367754579
0.00000000000 0.53140223026 0.46859779954
0.00000000000 0.51945865154 0.48054131866
0.00000000000 0.52400743961 0.47599256039
0.00000000000 0.51847052574 0.48152950406
0.00000000000 0.51874548197 0.48125451803
0.00000000000 0.52552968264 0.47447031736
0.00000000000 0.52940136194 0.47059860826
1.00000000000 0.52373838425 0.47626155615
1.00000000000 0.51739192009 0.48260802031
0.00000000000 0.52946269512 0.47053733468
0.00000000000 0.52472972870 0.47527027130
0.00000000000 0.52886927128 0.47113069892
0.00000000000 0.51759678125 0.48240318894
0.00000000000 0.51231074333 0.48768928647
0.00000000000 0.52870064974 0.47129932046
0.00000000000 0.52601182461 0.47398820519
0.00000000000 0.53046655655 0.46953341365
0.00000000000 0.52462297678 0.47537705302
0.00000000000 0.53092288971 0.46907714009
0.00000000000 0.52656394243 0.47343608737
1.00000000000 0.51549184322 0.48450815678
0.00000000000 0.52163416147 0.47836580873
0.00000000000 0.51179695129 0.48820301890
0.00000000000 0.53121155500 0.46878844500
0.00000000000 0.52851217985 0.47148776054
1.00000000000 0.51648294926 0.48351705074
1.00000000000 0.53141713142 0.46858286858
0.00000000000 0.52190083265 0.47809916735
0.00000000000 0.52318650484 0.47681352496
0.00000000000 0.52273821831 0.47726175189
1.00000000000 0.53115642071 0.46884351969
0.00000000000 0.52768975496 0.47231021523
0.00000000000 0.52949792147 0.47050207853
1.00000000000 0.51969349384 0.48030650616
1.00000000000 0.51898592710 0.48101407290
0.00000000000 0.52737456560 0.47262543440
0.00000000000 0.53177356720 0.46822646260
0.00000000000 0.52969479561 0.47030523419
0.00000000000 0.51349264383 0.48650738597
0.00000000000 0.53064721823 0.46935275197
0.00000000000 0.53078907728 0.46921089292
0.00000000000 0.52440512180 0.47559481859
1.00000000000 0.51673007011 0.48326992989
0.00000000000 0.52994030714 0.47005969286
1.00000000000 0.52342361212 0.47657632828
0.00000000000 0.53134459257 0.46865540743
0.00000000000 0.51847541332 0.48152458668
0.00000000000 0.52778798342 0.47221204638
1.00000000000 0.52854156494 0.47145846486
0.00000000000 0.53104305267 0.46895697713
0.00000000000 0.53174740076 0.46825253963
0.00000000000 0.52818661928 0.47181335092
1.00000000000 0.52969932556 0.47030070424
1.00000000000 0.51362824440 0.48637181520
1.00000000000 0.52979981899 0.47020018101
0.00000000000 0.52300143242 0.47699853778
1.00000000000 0.51809215546 0.48190784454
0.00000000000 0.51460188627 0.48539811373
0.00000000000 0.52781546116 0.47218450904
0.00000000000 0.52148687840 0.47851312160
0.00000000000 0.52931058407 0.47068947554
0.00000000000 0.53011173010 0.46988829970
0.00000000000 0.52580225468 0.47419771552
0.00000000000 0.52315121889 0.47684884071
0.00000000000 0.52444356680 0.47555640340
0.00000000000 0.51689726114 0.48310276866
0.00000000000 0.52756088972 0.47243911028
0.00000000000 0.52460378408 0.47539615631
1.00000000000 0.51615303755 0.48384699225
0.00000000000 0.52803242207 0.47196757793
1.00000000000 0.52312272787 0.47687724233
0.00000000000 0.53146642447 0.46853351593
0.00000000000 0.52772116661 0.47227883339
0.00000000000 0.52749371529 0.47250628471
0.00000000000 0.53017139435 0.46982857585
0.00000000000 0.51886045933 0.48113954067
0.00000000000 0.53142744303 0.46857249737
0.00000000000 0.52897739410 0.47102257609
0.00000000000 0.53113383055 0.46886616945
0.00000000000 0.53067505360 0.46932494640
0.00000000000 0.52076846361 0.47923156619
0.00000000000 0.53157377243 0.46842625737
0.00000000000 0.53091233969 0.46908771992
0.00000000000 0.52442914248 0.47557085752
0.00000000000 0.52618467808 0.47381526232
0.00000000000 0.52903997898 0.47096002102
0.00000000000 0.52847886086 0.47152113914
0.00000000000 0.52068197727 0.47931808233
0.00000000000 0.52948653698 0.47051346302
1.00000000000 0.52302134037 0.47697865963
0.00000000000 0.52949309349 0.47050690651
0.00000000000 0.53007942438 0.46992054582
0.00000000000 0.51800066233 0.48199939728
0.00000000000 0.52500855923 0.47499147058
0.00000000000 0.52377206087 0.47622790933
0.00000000000 0.52795994282 0.47204002738
0.00000000000 0.53057861328 0.46942141652
0.00000000000 0.52824872732 0.47175130248
0.00000000000 0.52500110865 0.47499889135
0.00000000000 0.52809226513 0.47190779448
0.00000000000 0.53053027391 0.46946969628
1.00000000000 0.53156840801 0.46843159199
0.00000000000 0.52035826445 0.47964170575
0.00000000000 0.52335250378 0.47664752603
1.00000000000 0.51822519302 0.48177474737
1.00000000000 0.52903091908 0.47096908092
0.00000000000 0.52994924784 0.47005075216
0.00000000000 0.51949489117 0.48050510883
0.00000000000 0.52062213421 0.47937789559
0.00000000000 0.53163009882 0.46836990118
0.00000000000 0.53047472239 0.46952527761
0.00000000000 0.52967792749 0.47032207251
0.00000000000 0.52757942677 0.47242057323
0.00000000000 0.52237302065 0.47762697935
0.00000000000 0.52922230959 0.47077766061
0.00000000000 0.51902192831 0.48097804189
0.00000000000 0.52545094490 0.47454905510
0.00000000000 0.52974289656 0.47025713325
1.00000000000 0.51956045628 0.48043951392
0.00000000000 0.52541828156 0.47458165884
1.00000000000 0.52824062109 0.47175937891
0.00000000000 0.52585810423 0.47414189577
0.00000000000 0.52863013744 0.47136986256
0.00000000000 0.52525097132 0.47474899888
0.00000000000 0.51848655939 0.48151338100
0.00000000000 0.52295041084 0.47704961896
0.00000000000 0.52233946323 0.47766056657
0.00000000000 0.52652758360 0.47347238660
0.00000000000 0.52876621485 0.47123378515
0.00000000000 0.52278602123 0.47721400857
0.00000000000 0.52663135529 0.47336861491
0.00000000000 0.52963626385 0.47036373615
0.00000000000 0.52863729000 0.47136273980
0.00000000000 0.52300500870 0.47699496150
0.00000000000 0.53117746115 0.46882253885
0.00000000000 0.52879863977 0.47120139003
0.00000000000 0.52747142315 0.47252854705
0.00000000000 0.52553200722 0.47446799278
0.00000000000 0.52369064093 0.47630935907
0.00000000000 0.52913743258 0.47086259723
0.00000000000 0.52821540833 0.47178456187
0.00000000000 0.51137101650 0.48862901330
0.00000000000 0.53101658821 0.46898341179
0.00000000000 0.52636682987 0.47363314033
1.00000000000 0.52908974886 0.47091025114
0.00000000000 0.52477258444 0.47522741556
0.00000000000 0.52608919144 0.47391077876
0.00000000000 0.51751327515 0.48248672485
0.00000000000 0.52494674921 0.47505322099
0.00000000000 0.52418428659 0.47581574321
0.00000000000 0.52715706825 0.47284290195
0.00000000000 0.52710098028 0.47289901972
1.00000000000 0.53150510788 0.46849489212
0.00000000000 0.51697397232 0.48302605748
0.00000000000 0.52538716793 0.47461283207
0.00000000000 0.53158742189 0.46841254830
0.00000000000 0.52636975050 0.47363027930
0.00000000000 0.52519607544 0.47480392456
0.00000000000 0.52691787481 0.47308212519
0.00000000000 0.53161090612 0.46838909388
0.00000000000 0.52012789249 0.47987213731
0.00000000000 0.52752834558 0.47247168422
0.00000000000 0.53048580885 0.46951416135
0.00000000000 0.52939736843 0.47060266137
1.00000000000 0.51560020447 0.48439982533
0.00000000000 0.52785605192 0.47214391828
0.00000000000 0.52936553955 0.47063449025
0.00000000000 0.52011758089 0.47988241911
0.00000000000 0.52482604980 0.47517389059
0.00000000000 0.52467066050 0.47532933950
1.00000000000 0.52909255028 0.47090744972
0.00000000000 0.52909851074 0.47090145946
0.00000000000 0.52290350199 0.47709649801
0.00000000000 0.52769225836 0.47230771184
0.00000000000 0.53045684099 0.46954321861
1.00000000000 0.52167791128 0.47832208872
0.00000000000 0.52216011286 0.47783988714
0.00000000000 0.53015851974 0.46984148026
0.00000000000 0.52131998539 0.47867998481
1.00000000000 0.51472461224 0.48527541757
0.00000000000 0.51189023256 0.48810976744
0.00000000000 0.51440769434 0.48559233546
0.00000000000 0.52460664511 0.47539338470
0.00000000000 0.53069549799 0.46930450201
0.00000000000 0.52697700262 0.47302296758
0.00000000000 0.53022557497 0.46977436543
0.00000000000 0.52723634243 0.47276362777
0.00000000000 0.52694344521 0.47305649519
0.00000000000 0.52941060066 0.47058942914
0.00000000000 0.53178292513 0.46821704507
0.00000000000 0.51597440243 0.48402559757
0.00000000000 0.52302056551 0.47697940469
0.00000000000 0.51825505495 0.48174497485
0.00000000000 0.53054261208 0.46945732832
0.00000000000 0.52796095610 0.47203904390
0.00000000000 0.52878206968 0.47121798992
1.00000000000 0.52880865335 0.47119131684
0.00000000000 0.51762247086 0.48237752914
0.00000000000 0.53044462204 0.46955534816
1.00000000000 0.52712905407 0.47287094593
0.00000000000 0.51726531982 0.48273465037
0.00000000000 0.52846109867 0.47153884172
0.00000000000 0.53139638901 0.46860361099
0.00000000000 0.53167092800 0.46832904220
0.00000000000 0.53061640263 0.46938359737
1.00000000000 0.52305275202 0.47694721818
1.00000000000 0.52300709486 0.47699287534
0.00000000000 0.53148210049 0.46851792932
1.00000000000 0.53191530704 0.46808469296
0.00000000000 0.52896648645 0.47103351355
0.00000000000 0.52905899286 0.47094097733
0.00000000000 0.51122814417 0.48877185583
0.00000000000 0.53132331371 0.46867668629
1.00000000000 0.52532154322 0.47467842698
1.00000000000 0.52724885941 0.47275114059
0.00000000000 0.52642053366 0.47357949615
1.00000000000 0.53060102463 0.46939894557
0.00000000000 0.52196460962 0.47803536057
0.00000000000 0.52444726229 0.47555273771
0.00000000000 0.52913820744 0.47086176276
0.00000000000 0.51798164845 0.48201832175
0.00000000000 0.53037321568 0.46962678432
0.00000000000 0.52815037966 0.47184959054
0.00000000000 0.52211266756 0.47788736224
0.00000000000 0.53041571379 0.46958428621
0.00000000000 0.52068287134 0.47931712866
0.00000000000 0.52521479130 0.47478523850
0.00000000000 0.51791852713 0.48208147287
0.00000000000 0.52932870388 0.47067126632
1.00000000000 0.52178955078 0.47821047902
0.00000000000 0.52883863449 0.47116136551
0.00000000000 0.51557213068 0.48442783952
0.00000000000 0.52825832367 0.47174167633
0.00000000000 0.51642161608 0.48357838392
0.00000000000 0.52637422085 0.47362580895
0.00000000000 0.52622741461 0.47377255559
0.00000000000 0.52236962318 0.47763037682
0.00000000000 0.52755010128 0.47244992852
0.00000000000 0.52903020382 0.47096976638
0.00000000000 0.51871889830 0.48128113151
0.00000000000 0.52676159143 0.47323837876
0.00000000000 0.52646756172 0.47353246808
0.00000000000 0.52892422676 0.47107574344
0.00000000000 0.53044694662 0.46955308318
0.00000000000 0.52193325758 0.47806674242
0.00000000000 0.53101253510 0.46898743510
0.00000000000 0.51878631115 0.48121368885
0.00000000000 0.51693099737 0.48306900263
1.00000000000 0.51454329491 0.48545664549
0.00000000000 0.53111326694 0.46888676286
0.00000000000 0.52878576517 0.47121417522
0.00000000000 0.52166032791 0.47833970189
0.00000000000 0.52629244328 0.47370755672
0.00000000000 0.52597343922 0.47402656078
0.00000000000 0.52770417929 0.47229582071
0.00000000000 0.52573645115 0.47426354885
0.00000000000 0.52366065979 0.47633934021
0.00000000000 0.52968221903 0.47031778097
0.00000000000 0.51935607195 0.48064395785
0.00000000000 0.51493316889 0.48506689072
0.00000000000 0.52410840988 0.47589159012
0.00000000000 0.52422231436 0.47577765584
0.00000000000 0.52233058214 0.47766944766
1.00000000000 0.51200193167 0.48799809813
0.00000000000 0.53175336123 0.46824666858
0.00000000000 0.52968931198 0.47031071782
0.00000000000 0.52659296989 0.47340705991
0.00000000000 0.51998364925 0.48001635075
0.00000000000 0.52929848433 0.47070148587
0.00000000000 0.53130590916 0.46869412065
0.00000000000 0.52158665657 0.47841340303
0.00000000000 0.53179538250 0.46820461750
0.00000000000 0.52932947874 0.47067049146
0.00000000000 0.53028219938 0.46971783042
0.00000000000 0.52340745926 0.47659257054
1.00000000000 0.52897876501 0.47102117538
0.00000000000 0.52522438765 0.47477561235
0.00000000000 0.51362502575 0.48637494445
0.00000000000 0.52343559265 0.47656437755
0.00000000000 0.52674663067 0.47325330973
0.00000000000 0.52470034361 0.47529965639
1.00000000000 0.53089255095 0.46910738945
0.00000000000 0.53110134602 0.46889862418
1.00000000000 0.53029477596 0.46970525384
0.00000000000 0.52798658609 0.47201338410
0.00000000000 0.52728337049 0.47271665931
1.00000000000 0.52297008038 0.47702991962
0.00000000000 0.52673095465 0.47326901555
0.00000000000 0.52307957411 0.47692042589
0.00000000000 0.52504408360 0.47495591640
0.00000000000 0.52885848284 0.47114151716
0.00000000000 0.51612341404 0.48387658596
0.00000000000 0.52644103765 0.47355896235
1.00000000000 0.52708721161 0.47291275859
0.00000000000 0.53132206202 0.46867799759
0.00000000000 0.52129757404 0.47870242596
0.00000000000 0.51833361387 0.48166632652
0.00000000000 0.52998840809 0.47001153231
0.00000000000 0.52776044607 0.47223949432
0.00000000000 0.52192753553 0.47807246447
1.00000000000 0.53010183573 0.46989819407
0.00000000000 0.52647119761 0.47352883220
0.00000000000 0.52063840628 0.47936162353
0.00000000000 0.52559864521 0.47440138459
0.00000000000 0.52955770493 0.47044232488
0.00000000000 0.52857595682 0.47142407298
0.00000000000 0.52974605560 0.47025391459
0.00000000000 0.52749043703 0.47250956297
0.00000000000 0.52402526140 0.47597470880
0.00000000000 0.53077793121 0.46922200918
0.00000000000 0.52363884449 0.47636115551
0.00000000000 0.52528560162 0.47471439838
1.00000000000 0.52690178156 0.47309827805
0.00000000000 0.52882236242 0.47117763758
0.00000000000 0.53043651581 0.46956348419
0.00000000000 0.52441614866 0.47558382154
0.00000000000 0.52858823538 0.47141176462
0.00000000000 0.52549797297 0.47450208664
0.00000000000 0.51957398653 0.48042598367
0.00000000000 0.52692776918 0.47307226062
0.00000000000 0.52916163206 0.47083839774
1.00000000000 0.52625060081 0.47374945879
0.00000000000 0.53085434437 0.46914562583
0.00000000000 0.52987456322 0.47012543678
0.00000000000 0.52701461315 0.47298538685
0.00000000000 0.52657389641 0.47342610359
0.00000000000 0.52650225163 0.47349774837
0.00000000000 0.51969665289 0.48030328751
0.00000000000 0.52490568161 0.47509434819
0.00000000000 0.52511161566 0.47488838434
0.00000000000 0.52901172638 0.47098821402
0.00000000000 0.52957487106 0.47042515874
0.00000000000 0.53177142143 0.46822854877
1.00000000000 0.52727556229 0.47272443771
0.00000000000 0.52345973253 0.47654023767
0.00000000000 0.53135854006 0.46864151955
0.00000000000 0.51946961880 0.48053044081
1.00000000000 0.52598655224 0.47401347756
0.00000000000 0.51074230671 0.48925775290
0.00000000000 0.52919930220 0.47080072761
1.00000000000 0.51430618763 0.48569381237
0.00000000000 0.52685713768 0.47314289212
0.00000000000 0.51564747095 0.48435252905
0.00000000000 0.52652943134 0.47347056866
0.00000000000 0.52838301659 0.47161695361
0.00000000000 0.52432018518 0.47567978501
0.00000000000 0.52763378620 0.47236624360
0.00000000000 0.52673065662 0.47326931357
0.00000000000 0.52765852213 0.47234141827
0.00000000000 0.52288234234 0.47711765766
1.00000000000 0.53043776751 0.46956220269
0.00000000000 0.53150242567 0.46849754453
0.00000000000 0.51941806078 0.48058196902
0.00000000000 0.51973438263 0.48026561737
1.00000000000 0.52917313576 0.47082683444
0.00000000000 0.52257496119 0.47742509842
1.00000000000 0.52477985620 0.47522014380
0.00000000000 0.52602750063 0.47397249937
0.00000000000 0.52352130413 0.47647866607
0.00000000000 0.53136849403 0.46863147616
0.00000000000 0.52645999193 0.47353997827
